sensor_0,sensor_1,sensor_2
1376,374,2434
1375,372,2435
1376,452,2434
1373,373,2436
1376,373,2433
1376,369,2436
1377,370,2438
1374,370,2439
1377,372,2441
1377,372,2439
1376,402,2440
1376,373,2441
1376,374,2453
1376,372,2440
1379,373,2441
1376,372,2443
1377,370,2443
1376,371,2444
1376,373,2443
1376,373,2446
1375,375,2445
1376,372,2446
1372,372,2444
1374,372,2445
1398,372,2445
1366,372,2446
1374,372,2455
1375,371,2451
1363,372,2448
1374,372,2448
1374,373,2449
1374,372,2450
1376,373,2450
1374,372,2448
1377,372,2451
1375,377,2452
1374,373,2452
1374,373,2452
1373,372,2432
1374,373,2453
1375,373,2453
1373,362,2454
1373,373,2455
1372,370,2457
1373,372,2454
1375,372,2457
1375,371,2457
1374,372,2465
1373,372,2460
1373,371,2458
1374,371,2461
1354,373,2459
1372,371,2453
1378,372,2461
1372,374,2463
1373,372,2462
1371,372,2468
1372,370,2462
1371,373,2465
1371,371,2465
1376,370,2465
1371,373,2466
1370,371,2467
1371,371,2467
1373,370,2467
1370,372,2468
1369,372,2469
1370,372,2469
1365,372,2474
1371,371,2472
1372,371,2472
1370,373,2465
1374,371,2472
1370,369,2473
1370,438,2475
1369,371,2475
1371,373,2466
1371,371,2477
1369,371,2477
1371,370,2477
1361,373,2478
1393,370,2479
1369,372,2480
1368,372,2481
1367,371,2480
1369,392,2481
1366,369,2482
1368,370,2483
1369,372,2483
1359,372,2484
1366,372,2485
1365,373,2485
1367,381,2486
1370,370,2488
1366,368,2489
1365,371,2488
1364,371,2488
1364,371,2489
1366,372,2491
1364,370,2490
1363,369,2488
1369,377,2491
1364,371,2497
1364,371,2493
1362,373,2493
1364,371,2493
1363,371,2494
1365,371,2496
1362,372,2493
1360,371,2496
1362,371,2497
1362,372,2496
1362,371,2497
1353,371,2498
1361,372,2499
1361,371,2499
1347,370,2505
1360,371,2500
1361,366,2500
1362,371,2495
1366,371,2502
1360,371,2414
1358,369,2493
1362,371,2501
1358,370,2502
1359,371,2505
1365,370,2506
1357,370,2492
1357,403,2505
1356,368,2505
1358,371,2507
1358,370,2508
1355,370,2510
1356,373,2509
1357,370,2510
1360,380,2508
1356,368,2509
1348,370,2510
1356,369,2513
1353,370,2513
1354,369,2513
1356,369,2514
1353,369,2514
1354,368,2516
1354,370,2515
1354,369,2519
1352,370,2513
1354,370,2520
1374,371,2524
1347,370,2522
1353,370,2526
1353,371,2523
1353,371,2523
1350,369,2523
1353,370,2525
1352,370,2525
1350,368,2531
1354,370,2528
1350,373,2529
1353,369,2528
1349,372,2529
1349,370,2539
1349,369,2530
1349,369,2531
1344,370,2532
1349,369,2532
1353,370,2533
1349,370,2565
1348,370,2533
1349,372,2531
1334,370,2536
1348,370,2538
1347,369,2538
1348,369,2535
1347,370,2539
1347,370,2536
1346,370,2537
1345,433,2537
1345,362,2540
1344,370,2539
1344,369,2536
1344,372,2548
1344,370,2541
1343,369,2540
1344,370,2540
1330,368,2542
1342,369,2543
1338,369,2542
1339,369,2544
1343,366,2544
1344,369,2551
1340,369,2546
1341,368,2548
1341,369,2546
1338,369,2541
1341,384,2548
1341,368,2548
1342,368,2550
1341,369,2550
1340,369,2548
1341,368,2550
1340,368,2552
1340,369,2553
1341,368,2553
1339,364,2553
1339,369,2557
1336,365,2554
1338,369,2557
1340,371,2554
1338,368,2556
1337,192,2558
1340,368,2557
1334,366,2556
1327,371,2559
1333,368,2558
1339,370,2559
1348,368,2559
1338,364,2559
1339,368,2559
1339,368,2559
1339,367,2559
1338,369,2559
1339,368,2559
1339,371,2559
1338,368,2559
1338,368,2559
1339,368,2559
1339,368,2559
1338,368,2595
1340,368,2564
1339,368,2560
1342,368,2563
1339,367,2561
1340,368,2563
1340,369,2561
1342,368,2563
1340,83,2564
1341,364,2568
1340,368,2565
1341,367,2565
1340,366,2567
1341,368,2566
1341,366,2568
1341,368,2569
1341,362,2568
1340,368,2501
1342,368,2568
1341,367,2569
1340,365,2569
1341,366,2564
1342,368,2568
1342,367,2569
1344,367,2568
1344,368,2569
1323,307,1925
1146,216,1736
1146,274,1733
1147,274,1734
1147,274,1736
1147,274,1734
1147,269,1733
1147,279,1733
1146,273,1734
1149,276,1731
1149,273,1733
1149,274,1732
1149,273,1733
1152,274,1732
1147,271,1732
1347,274,1731
1154,273,1732
1155,281,1908
1160,273,1731
1155,274,1731
1156,274,1731
1158,275,1729
1157,272,1732
1160,273,1735
1160,273,1730
1158,274,1728
1161,282,1729
1161,273,1728
1162,273,1728
1162,272,1741
1163,273,1728
1163,275,1729
1165,273,1729
1165,274,1728
1166,273,1728
1166,259,1731
1168,274,1725
1168,274,1727
1169,274,1726
1168,276,1727
1170,275,1726
1176,273,1711
1161,274,1724
1165,273,1725
1176,273,1729
1174,273,1724
1172,273,1725
1190,270,1727
1177,273,1726
1177,274,1724
1178,272,1714
1168,273,1723
1179,272,1726
1181,275,1722
1179,282,1719
1181,272,1721
1185,272,1721
1184,271,1722
1184,273,1721
1184,273,1708
1186,273,1720
1187,273,1718
1188,290,1718
1188,283,1720
1192,272,1716
1192,273,1717
1191,272,1728
1193,273,1717
1200,273,1715
1194,272,1716
1195,273,1716
1197,272,1716
1197,270,1715
1198,270,1714
1200,272,1712
1198,273,1700
1201,272,1715
1190,272,1715
1203,272,1715
1173,276,1716
1207,272,1714
1205,275,1710
1205,272,1713
1208,255,1713
1209,272,1704
1211,273,1713
1211,275,1713
1214,281,1710
1212,272,1713
1195,273,1712
1216,270,1710
1214,272,1712
1216,272,1712
1218,272,1711
1219,271,1712
1222,274,1712
1219,273,1700
1222,272,1725
1222,273,1714
1224,272,1708
1230,271,1717
1226,274,1709
1226,273,1709
1227,273,1707
1228,260,1709
1234,274,1707
1229,272,1709
1232,272,1708
1227,284,1707
1234,270,1708
1234,273,1769
1236,272,1707
1238,272,1707
1235,273,1708
1237,273,1707
1240,273,1706
1254,272,1707
1238,272,1708
1232,273,1707
1247,272,1704
1242,273,1706
1235,273,1706
1244,272,1705
1246,274,1705
1247,273,1704
1245,272,1704
1284,273,1704
1249,274,1704
1250,273,1701
1250,270,1704
1243,272,1702
1256,272,1704
1252,270,1702
1254,275,1701
1253,272,1704
1252,273,1704
1256,272,1702
1258,272,1700
1258,273,1702
1260,271,1700
1258,274,1701
1259,272,1701
1260,273,1704
1261,274,1702
1264,272,1701
1263,272,1702
1263,272,1701
1264,275,1700
1267,270,1698
1265,273,1701
1266,272,1700
1273,271,1699
1266,267,1700
1269,272,1700
1268,273,1700
1269,272,1698
1266,284,1701
1272,272,1699
1271,272,1699
1273,272,1701
1273,273,1700
1274,275,1700
1271,273,1699
1276,272,1699
1292,272,1701
1276,272,1700
1275,274,1701
1275,275,1702
1278,275,1700
1275,272,1700
1278,273,1700
1278,273,1773
1280,273,1700
1280,272,1700
1282,272,1700
1280,272,1699
1278,288,1700
1280,272,1698
1281,272,1700
1282,273,1696
1283,273,1721
1283,273,1700
1283,272,1701
1282,272,1702
1287,272,1684
1284,272,1700
1285,272,1701
1286,273,1701
1286,272,1707
1286,276,1702
1286,271,1699
1288,272,1701
1288,268,1715
1287,268,1701
1288,272,1702
1289,272,1704
1288,272,1702
1288,272,1704
1290,270,1701
1291,273,1704
1290,286,1702
1293,272,1703
1290,236,1703
1292,272,1710
1289,270,1702
1289,272,1702
1289,276,1702
1291,272,1704
1291,272,1702
1289,273,1704
1291,272,1704
1292,272,1705
1290,274,1704
1294,250,1707
1293,272,1704
1292,275,1706
1291,273,1682
1293,272,1704
1293,272,1704
1292,272,1706
1293,272,1707
1292,273,1705
1293,270,1704
1294,272,1704
1293,272,1698
1292,271,1706
1292,272,1707
1266,270,1705
1291,272,1704
1288,273,1705
1292,273,1705
1292,272,1704
1342,272,1704
1289,272,1704
1289,272,1703
1290,272,1704
1293,272,1716
1290,270,1702
1291,272,1702
1289,274,1704
1291,266,1710
1289,272,1705
1292,274,1704
1288,273,1705
1290,272,1705
1289,272,1708
1289,270,1704
1290,270,1703
1291,274,1704
1285,269,1702
1285,273,1704
1289,272,1696
1286,273,1702
1288,272,1702
1287,272,1702
1144,276,1685
1070,333,1294
1073,381,1294
1074,333,1280
1073,333,1295
1110,333,1296
1074,332,1295
1073,331,1501
1073,333,1297
1074,332,1297
1075,239,1297
1074,333,1297
1073,332,1294
1069,332,1293
1074,332,1300
1075,332,1289
1076,333,1299
1076,332,1299
1076,332,1300
1077,330,1301
1075,333,1300
1076,332,1300
1077,333,1301
1075,330,1302
1077,333,1302
1078,330,1302
1077,332,1304
1078,331,1304
1078,355,1303
1075,331,1304
1078,332,1304
1084,332,1305
1080,331,1302
1080,333,1304
1080,332,1306
1078,332,1306
1078,332,1309
1080,322,1306
1078,332,1304
1078,330,1306
1077,329,1329
1077,332,1307
1077,333,1306
1078,331,1307
1080,331,1308
1078,332,1308
1079,331,1308
1077,331,1308
1076,319,1308
1078,332,1310
1077,332,1309
1077,332,1309
1079,332,1310
1054,331,1310
1077,331,1313
1078,330,1310
1080,331,1310
1078,330,1313
1079,331,1313
1078,332,1313
1078,330,1312
1078,331,1318
1096,330,1306
1078,330,1314
1078,330,1313
1078,326,1315
1078,332,1312
1078,329,1315
1077,331,1315
1077,331,1297
1077,330,1315
1080,330,1315
1076,331,1317
1036,330,1316
1077,332,1316
1077,331,1317
1077,329,1315
1076,329,1317
1076,329,1314
1077,330,1317
1076,330,1319
1076,330,1319
1070,330,1325
1076,330,1318
1075,331,1313
1076,347,1321
1075,329,1321
1075,329,1321
1081,331,1321
1076,328,1322
1075,329,1323
1073,329,1323
1076,329,1323
1075,329,1324
1077,329,1324
1075,330,1325
1074,329,1324
1075,329,1325
1073,334,1324
1074,329,1321
1073,329,1326
1080,329,1326
1073,327,1326
1073,329,1326
1073,328,1328
1073,329,1326
1073,328,1376
1072,326,1332
1072,329,1328
1073,328,1328
1070,329,1337
1072,328,1328
1071,329,1330
1071,328,1329
1069,329,1331
1070,326,1341
1071,328,1330
1060,331,1331
1066,328,1331
1075,327,1330
1085,328,1331
1069,325,1331
1069,334,1331
1067,329,1365
1068,329,1331
1068,329,1334
1069,328,1333
1067,327,1334
1067,325,1334
1068,328,1334
1067,328,1339
1067,301,1333
1070,328,1328
1067,328,1336
1066,326,1336
1066,328,1336
1068,329,1337
1066,320,1336
1065,326,1336
1068,326,1336
1177,323,1338
1065,329,1337
1065,327,1338
1064,326,1337
1053,327,1324
1064,326,1338
1064,328,1339
1065,326,1339
1052,326,1339
1062,330,1333
1062,326,1340
1064,327,1340
1061,329,1339
1064,326,1335
1060,327,1341
1061,326,1340
1062,325,1340
1061,314,1341
1062,326,1337
1062,326,1340
1063,314,1341
1064,326,1341
1060,330,1343
1060,325,1341
1062,326,1342
1062,326,1342
1060,326,1342
1059,326,1345
1061,325,1342
1068,327,1343
1060,327,1344
1064,326,1343
1073,326,1342
1053,328,1342
1060,326,1345
1060,325,1345
1060,328,1344
1084,326,1347
1059,327,1345
1060,326,1345
1059,322,1343
1081,327,1335
1058,326,1345
1058,326,1346
1059,326,1345
979,326,1345
1057,325,1346
1056,326,1347
1057,325,1347
1054,326,1347
1056,326,1342
1056,325,1346
1054,325,1346
1056,326,1346
1056,326,1352
1056,324,1346
1054,325,1347
1055,328,1347
1054,326,1354
1053,324,1347
1055,325,1346
1055,325,1347
1054,326,1366
1056,325,1347
1054,324,1346
1056,308,1347
1054,346,1413
1053,324,1347
1053,324,1347
1053,323,1345
1051,325,1347
1051,325,1350
1049,325,1347
1054,325,1346
1051,325,1348
1051,324,1347
1053,324,1346
1056,324,1347
1049,324,1286
1051,324,1346
1052,325,1346
1050,325,1347
1050,324,1346
1049,325,1345
1033,325,1348
1050,323,1347
1050,324,1348
1049,324,1346
1046,324,1348
1050,323,1347
1049,325,1352
1049,323,1347
1048,324,1347
1050,433,1346
1049,325,1343
1048,325,1349
1048,324,1347
1048,325,1346
1048,324,1320
1046,324,1347
1047,324,1346
1048,325,1347
1052,325,1347
1046,328,1347
1045,324,1348
1048,324,1344
1046,325,1348
1045,323,1346
1040,323,1347
1046,325,1347
1045,322,1346
1046,323,1346
1044,323,1348
1046,323,1346
1046,323,1346
1046,258,1419
1106,379,1570
1105,379,1585
1107,403,1568
1104,378,1569
1079,378,1568
1105,382,1568
1102,378,1568
1088,384,1568
1104,378,1568
1105,385,1568
1109,379,1568
1105,378,1568
1104,375,1569
1087,378,1567
1103,378,1566
1102,378,1568
1102,373,1571
1109,379,1567
1102,377,1566
1102,378,1568
1102,378,1567
1103,378,1568
1102,378,1568
1102,377,1567
1102,374,1565
1100,377,1568
1101,378,1567
1103,377,1565
1100,376,1565
1102,377,1565
1100,377,1566
1100,375,1565
1104,377,1566
1099,378,1564
1099,377,1565
1099,377,1565
1098,377,1564
1100,377,1606
1100,378,1564
1098,377,1565
1097,376,1564
1110,379,1564
1099,378,1564
1105,378,1563
1097,375,1564
1098,376,1562
1100,377,1562
1100,378,1564
1097,377,1563
1097,376,1580
1098,377,1562
1096,377,1564
1097,376,1563
1097,392,1563
1093,379,1564
1099,381,1563
1097,376,1562
1097,381,1562
1282,376,1561
1096,375,1561
1094,376,1558
1074,377,1562
1095,364,1560
1094,376,1560
1094,376,1564
1106,377,1561
1092,376,1560
1093,377,1561
1094,376,1556
1092,376,1561
1093,376,1549
1092,376,1560
1092,379,1561
1093,376,1560
1093,395,1561
1092,374,1565
1091,376,1559
1092,377,1558
1090,373,1560
1092,376,1560
1092,376,1558
1091,376,1558
1091,377,1558
1090,376,1746
1091,374,1561
1091,374,1560
1086,377,1558
1091,376,1557
1119,374,1557
1091,376,1558
1092,374,1556
1091,375,1558
1090,377,1753
1092,376,1557
1090,374,1556
1091,376,1556
1090,377,1557
1089,378,1555
1089,376,1556
1091,376,1555
1090,377,1556
1083,377,1588
1089,377,1555
1088,376,1554
1091,377,1555
1092,378,1555
1089,376,1554
1088,376,1555
1090,376,1554
1088,377,1554
1088,376,1556
1088,377,1553
1088,378,1569
1089,379,1552
1088,377,1556
1088,376,1552
1114,376,1549
1087,376,1552
1088,377,1539
1086,375,1549
1086,376,1572
1086,376,1571
1087,378,1549
1085,377,1550
1085,375,1550
1089,376,1551
1084,374,1549
1083,377,1548
1083,378,1548
1078,376,1549
1083,377,1547
1085,377,1547
1084,378,1547
1083,376,1552
1083,375,1547
1086,378,1547
1084,377,1547
1085,338,1548
1084,376,1545
1084,376,1546
1082,377,1546
1083,377,1546
1082,377,1547
1083,377,1595
1082,376,1545
1082,370,1544
1082,377,1594
1082,373,1545
1081,387,1546
1082,378,1541
1082,369,1542
1081,377,1543
1080,376,1553
1083,377,1541
1079,377,1542
1080,376,1544
1082,377,1542
1078,376,1541
1081,378,1541
1080,378,1540
1080,371,1539
1170,377,1541
1081,376,1541
1080,377,1540
1078,376,1541
1080,377,1540
1080,394,1540
1086,378,1540
1080,377,1539
1078,377,1545
1076,380,1538
1080,378,1554
1078,392,1538
1072,377,1538
1080,378,1538
1077,378,1537
1078,378,1537
1078,378,1537
1076,376,1537
1078,379,1537
1076,378,1537
1075,378,1545
1088,377,1536
1075,378,1535
1077,380,1536
1077,398,1535
1076,378,1535
1076,378,1535
1075,378,1531
1073,377,1535
1074,377,1535
1074,378,1535
1073,378,1535
1075,378,1535
1075,384,1535
1074,379,1535
1073,379,1535
1073,378,1535
1074,377,1535
1073,377,1535
1056,378,1535
1060,378,1535
1073,378,1535
1073,378,1535
1072,379,1535
1073,378,1535
1074,377,1549
1074,376,1535
1072,379,1535
1072,378,1535
1074,379,1535
1070,376,1535
1070,368,1535
1071,379,1534
1070,378,1535
1070,378,1521
1072,378,1534
1070,378,1535
1068,377,1520
1059,377,1535
1070,378,1535
1069,379,1535
1069,378,1534
1069,381,1534
1070,378,1534
1069,362,1533
1068,382,1533
1068,378,1532
1069,387,1535
1068,380,1530
1067,378,1532
1068,378,1532
1068,377,1533
1067,379,1530
1067,379,1534
1067,377,1485
1067,378,1530
1065,380,1531
1065,379,1531
1066,378,1531
1067,378,1530
1060,379,1531
1067,376,1531
1066,378,1532
1066,378,1527
1067,378,1531
1092,379,1531
1064,378,1532
1041,376,1530
1065,378,1530
1064,378,1530
1064,378,1530
1066,377,1530
1066,377,1529
1065,253,1306
755,230,1329
754,229,1329
757,230,1329
754,230,1329
754,230,1328
754,231,1327
750,230,1326
753,230,1328
755,232,1330
755,230,1326
754,229,1326
753,230,1325
746,231,1326
750,231,1326
753,229,1325
754,229,1326
753,232,1322
753,218,1330
753,230,1326
752,230,1326
750,230,1347
782,232,1326
388,230,1325
753,230,1324
754,214,1325
753,230,1324
751,230,1324
752,232,1323
751,230,1325
750,230,1324
751,229,1324
752,233,1320
736,230,1322
742,198,1323
749,230,1325
751,232,1321
750,230,1321
751,230,1322
752,231,1321
750,232,1321
749,230,1320
750,232,1320
749,226,1323
749,230,1317
749,232,1321
748,230,1294
749,230,1320
753,233,1319
748,229,1318
757,232,1318
751,229,1317
746,245,1317
748,230,1321
749,229,1317
749,230,1311
749,231,1284
749,232,1321
746,229,1316
747,242,1324
748,232,1305
747,230,1316
742,230,1316
748,204,1318
747,232,1315
745,229,1316
747,230,1318
753,243,1315
749,230,1316
746,230,1315
747,232,1314
745,233,1282
747,232,1314
745,259,1313
745,233,1315
764,230,1315
747,232,1315
745,225,1314
745,232,1312
744,233,1316
748,230,1313
745,232,1312
744,235,1313
745,230,1313
746,232,1314
745,234,1314
744,228,1313
745,229,1313
744,233,1313
745,232,1312
748,232,1312
744,231,1312
744,236,1314
742,232,1313
746,232,1301
744,232,1313
742,233,1312
744,230,1312
684,232,1312
741,231,1311
744,235,1312
741,232,1310
742,230,1310
742,231,1307
742,232,1310
740,231,1309
741,232,1309
747,231,1315
744,230,1309
740,234,1308
743,230,1309
742,216,1309
742,232,1309
742,230,1308
743,233,1308
746,244,1309
741,232,1308
740,232,1309
740,231,1308
744,233,1307
740,233,1310
738,232,1308
737,236,1278
757,231,1307
739,232,1306
739,232,1307
740,233,1305
739,232,1307
739,229,1321
739,228,1304
740,234,1306
738,232,1305
738,231,1306
737,232,1358
738,232,1305
738,233,1305
738,226,1307
738,231,1302
735,232,1304
738,233,1303
738,233,1307
738,232,1307
740,232,1302
739,218,1306
737,233,1305
736,232,1304
737,230,1302
738,232,1302
738,233,1304
736,236,1304
738,229,1302
738,230,1304
735,235,1303
736,246,1302
736,230,1301
748,230,1301
742,234,1301
738,233,1302
734,229,1301
739,229,1300
736,233,1300
736,233,1300
737,230,1302
755,230,1300
736,232,1301
741,230,1300
736,228,1301
736,229,1299
736,231,1299
735,232,1299
735,232,1297
734,230,1300
734,232,1297
733,233,1299
734,230,1397
733,232,1299
732,231,1298
735,237,1298
734,229,1299
733,230,1304
731,231,1298
733,233,1297
732,232,1297
726,233,1296
732,230,1298
733,230,1297
729,230,1295
733,234,1266
732,232,1296
732,223,1298
732,230,1295
731,232,1296
733,231,1297
730,229,1299
730,228,1294
730,230,1295
730,230,1294
734,235,1295
731,232,1295
730,230,1296
731,229,1294
731,230,1293
724,232,1293
730,232,1294
731,232,1291
733,232,1292
733,232,1292
731,230,1277
730,228,1294
729,236,1293
731,230,1289
730,232,1293
732,231,1293
730,230,1292
734,229,1292
730,229,1290
729,232,1289
728,230,1291
728,228,1291
729,230,1290
728,233,1291
726,230,1291
728,228,1290
730,235,1288
729,228,1291
728,230,1290
728,228,1289
729,231,1290
725,232,1289
716,231,1289
750,228,1288
729,232,1290
727,232,1289
728,232,1293
730,230,1289
732,229,1286
728,232,1308
726,227,1290
729,229,1291
732,230,1286
727,232,1287
728,243,1287
726,230,1286
725,233,1286
726,232,1287
726,234,1286
726,230,1286
724,231,1285
725,232,1285
749,237,1285
724,232,1285
729,232,1283
724,232,1283
724,233,1283
725,232,1115
723,267,1499
1117,255,1460
1118,253,1461
1120,256,1477
1117,254,1461
1117,254,1461
1116,256,1462
1116,256,1464
1117,254,1460
1116,254,1464
1115,257,1464
1115,255,1465
1117,248,1466
1116,254,1467
1115,253,1509
1116,254,1467
1116,251,1469
1115,255,1468
1120,254,1469
1115,256,1469
1119,254,1470
1116,254,1471
1113,255,1507
1113,269,1442
1094,254,1473
1113,255,1477
1115,256,1372
1113,255,1474
1114,254,1475
1113,254,1475
1112,255,1476
1110,256,1477
1110,256,1476
1117,254,1478
1112,257,1477
1112,255,1492
1110,254,1480
1110,254,1481
1107,304,1480
1110,256,1482
1109,254,1481
1060,241,1481
1110,257,1482
1109,256,1484
1109,253,1482
1110,254,1480
1110,248,1482
1109,254,1485
1109,256,1484
1111,255,1485
1109,275,1494
1107,256,1433
1109,254,1486
1108,254,1501
1111,228,1488
1108,257,1488
1108,252,1489
1107,255,1488
1109,270,1490
1107,256,1487
1106,254,1489
1108,256,1490
1107,256,1492
1106,256,1490
1106,254,1492
1107,254,1491
1121,255,1491
1107,255,1592
1107,256,1493
1106,255,1486
1107,255,1493
1105,256,1495
1104,256,1494
1108,254,1496
1106,251,1497
1106,252,1496
1104,256,1497
1105,256,1496
1105,256,1496
1103,258,1497
1104,255,1496
1104,256,1497
1106,249,1497
1104,257,1498
1103,256,1497
1101,256,1498
1100,217,1498
1102,256,1497
1102,254,1500
1102,252,1500
1101,330,1501
1105,256,1500
1103,257,1499
1099,255,1499
1100,224,1498
1099,255,1501
1100,255,1498
1100,255,1500
1101,304,1513
1100,257,1497
1098,256,1500
1099,261,1500
1098,241,1500
1090,257,1501
1101,256,1502
1099,256,1502
1097,47,1502
1098,257,1503
1097,255,1504
1097,256,1502
1099,256,1501
1098,256,1505
1092,260,1502
1096,257,1502
1117,256,1504
1098,254,1504
1097,273,1503
1097,257,1505
1097,256,1506
1098,256,1505
1094,258,1506
1094,257,1507
1096,257,1506
1095,257,1506
1094,258,1506
1091,257,1507
1094,253,1507
1092,257,1507
1094,257,1508
1093,257,1508
1094,256,1508
1091,257,1508
1091,257,1506
1094,256,1509
1093,257,1509
1093,260,1510
1110,259,1526
1092,258,1511
1092,257,1518
1093,258,1510
1095,252,1490
1090,257,1512
1092,258,1512
1092,327,1512
1092,258,1512
1091,257,1515
1091,262,1513
1089,257,1514
1091,255,1514
1090,258,1513
1101,257,1515
1072,258,1514
1092,259,1512
1090,257,1514
976,256,1516
1089,259,1515
1090,258,1496
1090,259,1516
1090,258,1515
1089,259,1517
1090,259,1518
1088,258,1518
1085,261,1515
1088,298,1516
1088,259,1517
1087,258,1476
1088,257,1517
1088,173,1517
1086,259,1518
1085,260,1517
1086,258,1518
1086,259,1518
1085,268,1519
1084,258,1520
989,258,1519
1086,259,1520
1085,257,1521
1085,257,1521
1086,258,1520
1084,258,1521
1085,260,1521
1084,258,1520
1083,253,1521
1078,257,1523
1082,258,1521
1086,258,1521
1083,257,1516
1083,259,1523
1083,258,1522
1082,257,1522
1150,248,1520
1083,258,1523
1082,258,1523
1082,258,1522
1083,258,1523
1082,258,1524
1083,261,1530
1082,258,1524
1084,259,1523
1082,257,1525
1082,260,1524
1081,258,1523
1081,260,1535
1081,258,1524
1081,259,1516
1080,260,1525
1081,257,1524
1084,258,1525
1082,259,1525
1080,256,1526
1080,258,1526
1080,270,1528
1035,258,1526
1080,257,1525
1079,258,1544
1082,257,1526
1080,259,1526
1075,259,1526
1076,259,1526
1077,260,1527
1077,258,1526
1076,258,1528
1077,259,1523
1079,266,1528
1077,263,1528
1077,259,1528
1080,258,1526
1003,259,1526
1077,260,1524
1076,258,1527
1077,257,1527
1075,259,1526
1077,258,1510
1077,258,1525
1076,254,1528
1075,258,1526
1075,258,1522
1075,259,1525
1075,258,1524
1075,266,1525
1072,258,1525
1074,258,1526
1072,258,1525
1074,258,1523
1073,257,1524
1075,258,1524
1075,258,1524
1072,258,1521
1072,264,1524
1073,257,1523
1072,258,1523
1072,258,1522
1072,258,1522
1072,257,1523
1072,258,1521
1073,292,1153
746,274,1506
746,283,1504
742,284,1506
744,281,1506
745,283,1504
746,281,1506
745,288,1505
744,281,1515
742,280,1505
742,281,1506
745,281,1504
744,282,1505
744,280,1507
742,281,1509
752,280,1505
743,280,1504
741,280,1504
742,281,1506
742,281,1505
744,280,1509
742,282,1506
739,282,1505
742,280,1509
742,280,1504
742,278,1504
742,280,1502
745,281,1505
742,280,1501
742,279,1504
740,278,1505
741,280,1502
741,281,1503
741,279,1504
740,279,1504
741,278,1500
741,189,1502
738,280,1496
741,281,1501
740,277,1501
741,280,1502
740,280,1498
741,280,1502
739,277,1504
659,279,1501
742,262,1503
738,280,1503
738,278,1503
739,281,1502
739,269,1503
740,278,1501
737,278,1503
738,280,1502
738,280,1502
739,280,1501
755,281,1502
736,278,1501
722,278,1502
739,275,1499
739,279,1501
737,280,1501
738,280,1498
737,279,1502
739,277,1501
739,281,1502
753,278,1501
737,277,1501
738,278,1505
745,277,1501
737,280,1501
737,279,1500
737,278,1501
740,279,1502
737,279,1501
741,278,1501
737,285,1502
740,278,1502
734,273,1502
733,278,1500
735,278,1500
737,278,1500
735,277,1501
736,276,1500
734,277,1500
734,278,1501
736,277,1492
736,253,1499
733,278,1498
734,278,1501
733,277,1499
735,277,1501
735,277,1499
734,280,1500
734,264,1500
733,277,1500
734,280,1501
735,276,1500
731,277,1500
726,278,1499
733,278,1501
733,276,1512
735,277,1500
732,362,1500
732,278,1501
730,277,1506
733,277,1500
732,283,1499
733,278,1488
731,292,1501
731,278,1501
732,277,1500
731,276,1501
732,277,1501
731,278,1500
731,278,1501
733,280,1500
731,278,1501
732,277,1500
731,276,1517
731,277,1501
729,278,1501
732,276,1496
733,277,1500
731,276,1499
727,277,1500
730,277,1500
730,279,1501
732,278,1501
730,277,1500
731,52,1501
730,275,1501
730,278,1501
729,278,1506
729,276,1502
729,278,1505
729,281,1501
731,277,1501
730,281,1501
766,278,1500
729,283,1501
729,276,1505
731,277,1502
730,277,1501
729,270,1501
729,277,1501
730,277,1501
729,276,1499
722,280,1501
729,275,1502
732,277,1501
728,278,1501
731,276,1501
726,278,1502
728,276,1500
726,275,1502
726,274,1498
727,278,1504
725,277,1500
728,278,1497
726,277,1501
729,277,1501
728,279,1499
728,278,1506
731,277,1500
727,276,1505
726,277,1501
726,278,1506
726,278,1498
743,277,1501
725,293,1500
725,267,1500
725,277,1500
725,277,1500
725,277,1497
730,285,1500
724,278,1500
726,278,1500
724,277,1501
724,276,1500
730,278,1500
725,278,1500
725,278,1480
725,278,1500
726,278,1500
724,297,1502
724,282,1513
725,277,1498
723,280,1501
724,278,1500
724,279,1500
726,277,1502
726,277,1501
724,278,1499
726,293,1501
725,277,1500
727,278,1498
726,278,1499
720,280,1501
724,278,1502
776,278,1499
726,303,1498
725,279,1498
727,279,1500
724,278,1500
725,280,1496
728,278,1499
728,280,1501
726,279,1500
728,282,1500
719,280,1500
728,276,1499
727,278,1499
690,276,1488
727,280,1497
728,278,1498
728,280,1499
732,278,1499
729,280,1499
728,278,1500
729,280,1498
729,278,1502
728,278,1492
760,281,1500
730,282,1482
731,278,1499
832,277,1499
730,277,1501
728,278,1500
731,279,1498
730,283,1482
728,280,1497
733,277,1499
730,278,1499
722,278,1497
735,280,1499
730,280,1499
729,279,1499
731,298,1498
731,280,1498
730,279,1498
729,277,1497
731,281,1499
730,281,1500
731,278,1498
729,279,1500
731,279,1499
731,280,1505
730,280,1498
732,281,1499
730,280,1574
732,280,1500
731,280,1499
731,286,1500
731,279,1499
761,281,1499
729,274,1653
976,298,1354
977,296,1358
976,294,1352
978,294,1353
983,295,1357
980,293,1350
978,295,1353
978,296,1356
980,294,1353
980,296,1353
992,293,1354
979,294,1352
980,296,1354
978,298,1353
974,296,1355
963,294,1353
980,294,1352
980,289,1352
980,298,1352
982,294,1349
983,294,1350
984,293,1350
981,296,1349
977,293,1353
982,297,1353
984,296,1352
982,281,1352
982,295,1350
982,293,1350
982,294,1352
983,293,1351
984,297,1350
981,295,1353
982,294,1352
981,294,1352
982,294,1353
978,294,1352
985,296,1352
984,293,1394
983,293,1352
982,293,1352
984,291,1353
984,296,1353
984,294,1354
984,294,1354
983,287,1354
982,296,1352
984,294,1353
981,294,1353
982,293,1385
983,296,1353
982,300,1354
983,293,1355
986,292,1354
982,293,1354
984,294,1356
982,294,1355
983,293,1355
984,292,1364
982,293,1353
983,293,1371
981,293,1355
985,296,1355
982,293,1357
981,292,1354
981,304,1356
981,294,1349
982,293,1402
981,293,1356
980,293,1356
980,291,1357
982,293,1356
980,292,1357
981,293,1350
981,282,1360
980,293,1358
980,296,1356
980,293,1358
977,293,1357
980,294,1358
981,306,1357
979,293,1354
961,295,1358
979,292,1358
980,292,1358
978,293,1359
978,293,1357
979,289,1359
982,293,1360
978,292,1358
978,292,1360
977,292,1360
978,293,1358
979,289,1360
977,291,1359
977,293,1363
976,292,1359
977,292,1360
961,293,1359
968,291,1360
973,291,1358
974,292,1357
974,278,1359
973,292,1362
977,292,1360
973,292,1360
974,290,1358
977,292,1345
973,292,1359
976,292,1357
972,290,1357
972,316,1358
973,292,1357
972,292,1358
972,291,1356
971,292,1359
973,292,1360
973,292,1357
971,180,1359
971,293,1361
970,292,1376
972,291,1360
971,298,1357
971,292,1358
971,291,1357
971,291,1357
970,291,1356
982,292,1356
970,292,1356
971,302,1362
969,291,1356
969,290,1356
969,291,1358
969,288,1354
970,291,1361
969,292,1355
974,291,1354
968,295,1356
969,291,1354
969,291,1329
970,290,1355
963,274,1354
969,290,1354
966,291,1355
970,291,1353
965,292,1353
969,291,1354
972,292,1353
968,291,1354
961,291,1350
968,292,1353
968,291,1353
969,286,1352
969,291,1352
969,291,1352
970,289,1353
968,293,1352
969,290,1354
969,290,1350
968,288,1352
969,290,1352
969,291,1353
976,291,1351
969,291,1350
970,294,1352
969,291,1352
974,290,1351
969,290,1353
969,318,1350
968,290,1351
969,290,1350
970,290,1350
969,290,1297
970,290,1352
969,291,1350
970,291,1352
969,290,1350
969,291,1352
969,290,1351
969,287,1349
970,290,1337
970,292,1347
970,290,1350
973,290,1350
972,290,1350
971,296,1350
970,289,1352
971,290,1350
969,296,1350
966,273,1350
972,291,1350
972,289,1350
969,289,1313
960,288,1350
971,291,1349
974,320,1350
970,289,1349
972,241,1348
970,289,1368
970,289,1349
970,290,1348
970,290,1349
971,290,1336
969,289,1348
971,286,1349
971,289,1349
971,291,1345
972,289,1349
972,288,1348
972,284,1362
970,280,1349
972,288,1348
972,273,1347
972,289,1349
976,289,1350
971,289,1348
787,289,1348
974,292,1349
966,289,1353
973,289,1348
972,290,1348
972,289,1352
992,289,1347
972,289,1347
973,289,1349
972,290,1348
974,288,1348
974,290,1350
974,290,1349
974,289,1348
974,289,1348
974,289,1348
974,289,1347
977,289,1350
975,289,1347
976,288,1348
974,289,1348
978,290,1347
977,289,1345
974,288,1348
974,289,1349
980,288,1347
976,213,1348
978,293,1345
976,288,1345
977,289,1347
975,289,1341
974,284,1346
975,290,1345
976,294,1347
974,289,1333
976,288,1346
976,289,1345
975,289,1345
976,326,1494
