sensor_0,sensor_1,sensor_2
120,104,123
117,102,122
121,104,122
123,105,121
121,102,122
120,102,122
121,102,120
120,102,131
117,102,124
121,102,122
120,103,126
121,118,122
122,104,121
121,101,122
120,104,122
120,103,123
121,105,120
118,103,122
122,100,121
120,105,124
124,103,122
120,102,122
121,102,122
121,104,122
138,103,122
120,101,120
116,102,119
126,104,122
125,102,122
121,105,122
117,102,123
121,106,123
120,102,110
122,100,123
120,100,122
121,102,121
114,102,120
120,107,122
118,101,122
121,101,121
115,102,122
121,105,121
120,102,123
121,102,122
120,106,122
121,102,122
120,102,123
123,101,121
120,104,125
121,104,122
120,103,122
119,102,122
121,104,123
122,102,123
121,103,122
121,100,122
120,101,121
122,92,122
120,102,122
120,105,122
119,102,122
121,105,122
121,100,125
121,102,122
119,105,118
121,101,117
123,102,121
120,102,122
120,100,121
121,104,168
119,110,122
121,101,123
121,106,123
150,102,122
121,102,121
122,104,123
120,104,123
124,104,121
120,102,121
121,103,122
121,102,124
120,104,121
121,102,123
118,102,125
104,105,122
121,101,122
121,101,122
120,101,134
121,102,121
117,101,122
121,102,122
121,103,124
121,102,122
120,100,122
120,102,122
122,101,117
121,163,123
121,102,122
121,101,124
121,104,122
116,105,123
123,103,121
121,102,120
118,102,122
118,104,123
122,100,118
121,102,130
120,102,122
120,102,122
120,104,123
120,104,123
120,102,123
129,102,122
121,102,123
123,102,121
119,102,120
121,104,122
118,102,115
122,103,122
120,103,122
117,102,124
117,101,123
121,106,124
120,102,122
118,102,121
121,102,121
121,101,120
121,102,125
121,99,122
120,102,122
123,102,123
120,105,123
121,104,123
121,103,121
120,104,122
118,102,123
120,102,123
122,104,122
120,102,122
118,102,123
121,102,122
120,102,123
121,106,124
118,102,122
121,103,123
122,102,132
121,102,124
122,102,121
117,102,123
124,102,122
117,105,122
120,101,122
121,100,121
121,101,122
121,109,124
123,104,121
120,101,124
122,102,122
120,102,123
121,101,122
121,101,123
122,102,121
120,102,121
126,102,122
116,101,122
121,101,120
121,102,123
121,102,123
120,102,122
123,104,130
120,102,122
120,99,123
121,101,122
121,103,123
122,105,122
120,102,122
118,102,122
120,119,122
114,102,120
119,101,123
120,102,122
121,94,122
121,102,122
125,102,122
120,100,123
124,104,120
122,96,121
120,104,124
120,104,124
118,102,122
120,102,120
121,102,122
120,107,117
120,101,121
120,103,120
122,102,122
120,102,122
118,100,123
120,102,122
120,102,123
118,102,139
123,101,123
120,102,123
121,103,122
118,102,122
120,102,122
121,101,121
121,102,122
122,104,123
122,102,117
124,103,124
121,102,123
121,103,122
121,102,122
121,102,122
119,101,122
118,91,120
122,102,128
121,102,122
120,103,122
120,102,121
116,102,122
120,107,122
121,103,122
120,104,122
120,113,122
121,101,124
121,100,122
121,102,126
117,102,120
122,102,121
126,102,121
121,102,121
124,105,121
118,102,122
121,102,120
121,102,121
122,100,121
120,107,122
121,102,122
121,105,117
121,101,122
121,97,122
120,104,122
113,99,122
123,106,121
119,101,123
120,103,114
118,102,122
121,102,120
112,102,125
120,102,124
126,102,122
117,101,121
120,98,123
121,101,120
124,102,122
122,101,122
120,101,122
121,100,121
121,101,123
120,101,122
116,107,121
120,101,123
120,100,122
121,102,121
121,106,122
122,103,121
121,101,121
122,100,122
121,102,122
122,102,118
121,102,123
120,93,153
121,100,122
120,99,118
119,102,122
121,102,124
120,101,122
122,100,121
120,101,121
120,103,123
121,101,121
120,100,121
121,104,122
120,107,123
94,101,122
121,101,121
121,101,122
120,106,122
121,101,124
121,104,124
121,102,121
120,101,121
121,101,121
119,101,122
121,102,122
131,102,118
120,102,121
123,104,121
121,105,121
121,101,122
121,102,126
121,100,122
121,103,122
120,100,120
120,100,121
120,103,121
119,104,122
120,101,121
120,99,121
121,102,122
123,97,123
123,99,121
121,101,121
121,101,129
121,101,122
121,101,122
122,101,122
120,101,113
120,101,121
121,102,122
121,101,121
121,99,123
120,102,122
120,101,124
121,102,122
123,102,122
120,102,121
121,99,121
120,102,122
120,101,122
120,104,122
122,100,123
123,100,121
121,96,124
121,101,122
121,105,121
121,101,122
121,102,124
122,102,122
123,100,123
122,102,122
120,100,121
121,101,116
120,100,120
120,99,122
122,101,121
121,102,126
120,101,116
120,101,121
121,101,121
121,102,121
121,102,121
122,102,122
121,102,120
118,114,121
120,100,121
122,101,123
121,101,122
118,101,119
119,97,121
124,101,122
121,101,121
127,101,120
120,101,118
123,102,126
121,102,106
121,100,121
121,101,116
118,100,121
133,106,120
122,101,122
128,101,121
121,102,122
122,101,121
125,102,125
121,102,121
122,101,122
121,104,122
120,101,122
121,102,125
121,101,121
117,102,122
121,99,122
122,105,121
120,99,121
121,100,122
122,101,115
121,102,121
120,101,120
119,102,122
120,105,109
120,102,136
118,102,121
120,104,121
121,101,120
121,104,123
121,101,121
120,103,121
121,101,128
120,99,124
121,105,121
121,101,123
118,112,121
121,103,122
121,100,123
123,102,122
117,100,122
121,101,121
129,102,122
121,102,121
124,101,121
121,101,121
122,104,121
120,102,120
121,105,123
124,102,118
120,99,121
121,107,120
121,101,120
121,104,115
121,101,122
123,105,122
122,101,115
121,101,120
122,101,121
118,101,121
125,102,122
121,101,122
122,102,125
123,102,121
116,103,121
125,101,122
123,101,121
123,101,124
120,102,122
120,102,121
120,101,121
121,102,120
121,101,122
118,100,121
119,99,120
121,102,123
120,101,122
119,102,126
119,101,121
121,101,121
121,101,122
120,107,121
123,101,122
120,102,122
117,101,127
117,101,120
120,101,121
121,101,123
122,101,122
120,101,124
121,102,120
121,101,122
120,104,122
122,100,114
120,101,120
121,101,133
120,101,123
122,101,122
122,104,121
117,99,121
123,99,122
120,105,122
120,99,122
122,106,122
120,102,122
122,102,122
118,101,122
121,101,121
120,101,119
121,109,121
121,101,122
120,101,120
121,102,122
122,100,121
121,104,122
121,101,125
121,100,121
120,101,122
121,102,122
120,99,121
121,100,123
121,100,121
122,99,121
122,101,121
120,101,120
121,102,121
120,104,124
121,104,121
121,101,122
118,101,122
121,102,121
120,101,122
120,101,121
120,102,121
121,101,121
122,101,122
121,105,121
120,101,123
121,98,123
120,104,130
121,102,120
114,101,122
118,102,121
121,102,121
119,100,124
120,101,123
118,101,123
120,104,124
123,102,123
120,101,123
121,98,122
120,101,123
121,105,123
116,101,121
121,101,123
121,102,123
122,97,123
121,101,122
117,102,125
121,102,122
136,104,123
122,102,123
120,102,122
120,101,128
116,101,122
118,100,122
120,101,123
119,99,122
121,101,122
120,101,123
122,102,132
118,101,122
120,101,124
125,100,122
122,104,123
119,101,122
120,101,119
120,102,124
122,100,122
121,101,123
117,99,122
121,101,123
121,102,123
120,102,120
124,100,121
120,102,120
119,102,123
121,104,120
120,100,122
120,102,122
120,98,124
120,100,123
118,100,123
120,101,123
122,88,125
121,102,123
120,101,122
120,101,121
121,109,122
119,88,121
123,101,122
120,101,123
120,100,123
119,106,123
117,101,122
121,102,124
132,103,123
121,102,117
121,101,121
121,105,125
120,102,122
120,102,126
121,100,122
120,102,123
121,102,123
122,101,123
121,101,119
120,101,122
121,103,122
116,103,122
121,102,126
131,100,123
119,102,122
119,102,120
136,101,130
125,101,123
121,102,122
123,102,122
120,104,121
121,102,122
121,101,126
121,102,124
120,102,125
117,102,123
122,101,123
120,102,131
119,102,123
121,102,124
118,97,122
118,102,122
120,101,123
120,102,123
118,104,125
121,102,123
114,101,122
121,105,124
118,97,122
121,133,122
118,102,123
120,102,123
120,103,123
121,102,124
121,102,121
120,102,122
120,101,124
120,107,121
123,105,124
118,104,122
121,102,122
120,98,121
122,104,122
121,105,125
121,103,122
122,102,120
121,102,122
121,101,124
121,102,122
117,102,124
118,102,125
120,104,123
122,103,122
125,101,122
130,102,123
120,102,123
121,105,120
121,102,122
122,101,126
121,101,123
121,102,124
121,102,121
122,105,118
122,102,122
122,102,123
120,103,122
120,86,111
120,102,122
121,101,124
118,102,122
122,105,122
117,104,122
118,101,121
121,99,123
121,103,123
121,102,123
120,100,123
120,102,122
137,102,124
121,102,122
122,101,121
121,105,125
121,102,122
122,102,123
121,101,122
118,105,121
119,109,122
118,105,128
121,103,123
121,99,122
120,104,123
137,101,122
117,102,120
121,105,122
120,101,123
121,102,123
122,102,123
121,102,122
121,102,122
120,103,117
120,108,118
122,102,121
118,102,123
121,102,122
120,102,121
122,103,123
121,104,121
120,101,126
121,104,125
121,102,122
118,102,122
92,101,122
121,106,122
121,101,122
123,101,120
121,102,122
117,102,122
120,101,122
122,104,122
121,101,122
125,100,122
120,102,118
120,101,121
118,104,122
121,102,123
122,102,124
121,102,121
121,102,118
123,104,122
121,106,123
121,101,122
121,102,121
121,102,123
122,98,123
120,101,124
121,102,114
120,101,123
122,103,122
121,102,121
121,104,122
121,101,122
122,102,122
120,105,121
124,102,120
122,102,120
121,102,122
120,101,129
122,102,123
130,102,120
120,101,125
118,102,122
120,104,123
120,101,125
122,101,123
121,99,122
118,101,122
118,101,122
120,101,123
122,104,123
119,101,123
119,101,122
120,102,123
117,101,123
120,102,122
117,101,122
121,101,120
121,101,123
120,104,122
121,102,122
120,99,120
120,102,122
121,100,122
120,100,116
121,101,125
121,102,123
123,102,118
121,101,124
120,103,122
120,100,124
117,99,122
121,100,120
118,101,120
120,102,128
121,98,125
124,100,117
121,100,122
121,101,120
120,101,122
124,99,131
120,99,121
122,98,121
121,102,122
120,99,122
120,101,122
122,100,123
119,101,123
118,104,122
120,99,122
121,100,123
121,101,122
120,100,123
121,100,121
118,101,121
120,101,124
120,100,123
118,101,123
115,107,123
120,101,123
122,100,122
120,101,123
121,100,125
122,107,121
118,102,122
121,105,122
123,101,123
118,101,120
119,102,122
121,102,115
119,100,122
123,102,121
121,100,122
121,101,125
121,104,123
121,101,129
120,100,122
121,99,123
121,99,121
123,102,125
121,105,123
121,101,122
117,101,123
120,101,123
122,102,117
120,101,123
118,101,132
121,100,122
121,101,125
121,100,124
121,101,123
117,101,120
122,107,117
121,104,122
120,96,115
120,101,105
120,101,123
120,101,123
121,90,124
102,105,123
122,101,123
121,100,123
121,91,123
115,101,122
121,101,122
120,100,123
122,100,121
120,101,123
121,101,123
120,102,123
123,101,122
120,113,119
117,101,121
120,101,123
121,100,123
122,101,124
122,100,123
121,99,120
121,105,123
122,97,123
120,107,125
118,97,122
121,101,121
121,101,90
121,101,123
119,101,122
121,99,122
121,101,122
118,99,123
120,103,122
120,101,122
121,101,121
120,103,113
123,102,122
121,101,123
121,101,123
109,101,122
121,101,123
121,105,122
121,101,124
121,93,122
122,100,130
122,105,123
119,100,121
120,102,123
121,102,122
116,104,123
121,100,123
119,116,123
121,100,124
117,101,120
119,101,120
121,100,122
121,101,122
120,101,123
120,97,125
122,99,121
120,101,123
121,102,122
120,99,123
121,101,124
123,100,122
118,102,127
116,100,124
121,99,122
125,99,123
118,99,123
120,102,121
121,101,123
121,102,123
120,100,122
122,101,123
122,104,121
122,101,123
122,101,123
121,100,122
120,99,121
118,101,122
120,105,123
121,99,122
120,101,120
120,100,123
118,101,121
121,110,122
124,101,123
121,100,123
120,101,123
120,101,121
118,101,120
120,101,122
121,99,122
120,101,122
120,100,123
121,100,126
121,101,121
120,102,123
121,101,123
120,99,128
121,100,138
120,101,122
120,102,121
121,104,114
121,101,123
118,104,124
120,100,123
120,100,124
120,100,123
123,100,123
121,103,124
120,101,123
120,102,123
124,100,122
122,104,120
130,102,122
120,98,120
122,100,120
120,101,122
124,99,123
120,101,122
120,100,122
120,100,122
118,100,120
121,101,120
122,58,122
120,99,122
121,101,122
120,101,123
120,101,124
120,100,124
125,101,124
120,101,122
120,104,122
125,101,123
120,101,118
121,100,122
120,102,123
120,101,122
117,101,123
121,100,123
120,101,121
121,101,124
122,100,123
123,103,122
121,108,122
120,102,123
124,101,122
121,100,125
121,100,121
120,100,123
116,102,123
121,105,123
119,99,121
121,104,122
121,100,123
121,104,123
120,101,160
118,100,122
121,98,124
120,101,122
116,101,122
120,101,123
120,101,120
120,101,121
121,101,121
120,102,124
123,101,122
122,94,120
120,102,122
111,102,121
121,100,121
120,104,123
121,98,123
121,112,122
121,100,123
121,102,123
120,101,122
118,104,117
120,101,123
117,100,123
121,105,123
118,82,123
121,101,121
120,102,123
120,100,122
120,100,122
118,100,122
121,100,124
118,100,121
120,100,123
129,101,124
120,101,123
115,101,126
118,100,118
137,100,122
121,110,125
121,101,124
120,101,123
119,101,124
120,101,124
120,100,121
118,104,130
122,99,124
121,96,124
120,91,122
117,101,124
121,101,124
122,101,123
120,101,122
121,101,122
121,101,124
120,101,124
119,101,123
122,104,124
120,105,123
121,100,121
120,102,124
120,101,124
121,102,126
120,101,122
121,100,121
121,100,117
120,100,124
125,101,124
121,102,123
122,99,122
121,100,123
118,100,124
120,102,121
121,100,122
121,96,124
121,104,124
120,98,124
120,98,123
119,107,123
120,103,123
117,101,123
120,100,123
121,101,124
120,100,124
120,101,124
120,107,120
132,100,123
120,97,123
118,101,124
118,99,123
121,100,123
120,102,124
121,100,124
120,99,122
120,104,124
118,102,122
121,101,122
120,101,107
118,96,123
125,100,123
120,101,123
122,98,122
120,102,126
121,99,124
120,101,124
119,100,124
120,101,122
118,101,123
120,101,125
120,101,124
118,100,124
120,100,124
121,98,123
119,102,123
121,102,122
118,110,123
120,102,124
122,100,128
120,103,124
118,100,123
123,104,124
120,101,123
120,100,123
123,101,123
136,91,120
120,101,124
120,100,123
120,101,123
132,101,124
118,100,123
117,98,123
120,100,123
121,101,124
118,100,128
120,101,125
120,100,121
119,100,121
120,106,123
121,100,123
120,99,124
182,101,124
121,99,125
120,100,124
122,99,122
116,100,121
118,99,125
120,102,123
118,100,123
119,99,124
116,100,123
120,100,123
120,100,125
117,109,122
120,100,124
121,101,123
121,100,122
120,100,124
123,105,123
121,100,123
117,102,123
118,100,123
121,102,124
120,101,124
120,99,123
120,105,124
122,102,124
120,99,124
118,99,124
123,106,123
121,101,123
120,100,124
120,99,124
133,102,124
121,99,110
121,101,123
123,98,124
133,101,124
117,100,124
121,101,123
119,99,123
118,100,123
121,100,124
123,105,124
121,101,124
120,100,124
120,98,124
120,99,123
120,100,123
123,96,123
118,102,122
121,101,125
120,107,123
121,101,124
121,100,125
123,100,121
124,101,122
121,100,123
117,100,124
121,100,122
121,101,123
120,112,121
121,99,123
121,101,124
120,100,125
120,99,123
120,100,123
117,104,123
118,100,123
116,97,123
118,96,124
122,100,125
121,100,124
118,101,124
123,100,125
120,100,123
120,102,122
116,104,123
120,102,124
120,101,122
120,101,128
121,102,124
119,101,144
121,100,120
120,101,124
121,101,124
98,104,128
121,101,123
119,100,124
120,101,123
120,99,123
120,100,124
120,101,123
118,101,123
122,101,124
111,101,123
121,101,123
120,102,124
120,101,123
122,100,124
119,99,124
120,101,125
121,99,123
120,101,124
120,101,121
120,100,123
120,101,123
118,102,123
120,102,124
121,100,121
121,101,123
121,102,124
121,101,124
121,102,125
120,99,122
122,101,124
120,100,124
121,100,123
122,93,123
121,101,124
121,101,124
117,101,126
120,100,125
115,101,122
120,101,124
118,100,124
120,100,124
120,101,123
120,100,130
120,101,124
119,105,124
121,101,123
121,101,125
119,100,124
124,100,123
118,101,124
121,98,124
120,100,124
118,101,123
120,100,102
120,100,124
121,100,124
120,100,124
124,100,125
121,102,124
118,101,122
122,101,124
121,104,121
120,104,124
122,104,125
121,100,126
121,106,124
118,102,123
123,106,123
119,104,124
121,104,123
121,100,124
121,104,123
120,104,124
121,105,126
121,104,123
120,104,125
121,104,124
121,103,121
120,104,123
118,104,124
121,103,125
121,112,124
120,104,124
121,103,124
121,104,121
118,102,123
121,103,124
112,102,125
118,104,124
128,102,124
121,105,125
120,104,124
121,104,123
118,104,121
121,103,126
114,104,123
121,104,124
120,104,123
120,104,120
120,106,124
117,102,122
121,100,121
121,107,125
119,104,124
122,102,124
121,104,124
181,105,124
120,104,123
122,100,126
120,102,123
122,104,123
122,103,126
123,104,122
121,105,123
120,104,124
122,104,123
120,104,124
121,101,123
126,81,124
122,103,123
121,103,124
120,104,124
120,102,123
120,105,124
120,102,124
120,105,122
121,104,124
121,102,124
121,111,123
121,101,123
120,100,123
121,101,128
121,104,124
123,104,123
120,104,125
117,104,124
120,103,124
124,105,123
121,105,120
118,104,138
120,105,122
120,104,123
120,102,126
125,104,122
120,104,124
118,105,123
121,104,123
121,103,122
120,102,124
118,103,124
121,104,122
121,104,124
121,102,124
124,102,123
120,104,124
116,104,128
120,104,124
121,104,126
121,102,124
120,102,123
118,100,125
121,103,123
122,105,124
121,104,124
121,103,125
122,102,123
124,105,121
122,102,123
121,104,124
120,101,124
121,104,123
120,108,124
121,100,124
120,102,121
121,104,126
124,100,124
121,104,124
124,96,124
121,105,122
121,104,123
122,104,125
134,104,124
107,101,124
120,103,125
121,101,126
109,105,124
121,104,122
123,102,121
121,104,124
121,104,123
121,105,126
120,103,124
120,100,124
122,104,123
120,116,122
120,104,123
119,101,124
122,99,124
121,106,124
121,104,124
122,103,128
121,103,124
122,103,126
121,100,124
121,104,124
120,104,123
117,102,123
121,100,124
121,101,122
121,104,125
120,102,123
122,103,124
120,102,124
122,104,124
121,104,123
121,103,117
121,104,123
124,104,123
122,100,124
133,102,122
121,104,125
121,106,123
120,103,124
122,101,124
121,106,123
122,104,125
121,104,123
121,103,124
120,104,124
120,104,123
122,104,124
120,103,123
118,102,122
120,104,124
121,104,122
118,104,134
121,105,125
120,104,123
121,105,123
120,103,124
122,103,124
121,101,120
122,102,123
121,104,122
125,105,123
120,104,123
123,105,122
122,108,123
108,105,123
122,106,122
117,104,124
120,104,122
121,102,123
123,103,126
116,105,125
122,104,124
121,104,123
124,102,123
121,103,124
120,101,123
120,141,123
121,102,124
121,102,124
123,99,124
120,104,124
121,102,123
120,104,123
121,100,129
121,103,123
118,99,123
121,102,123
119,104,123
120,104,140
121,102,124
121,103,121
118,102,123
118,105,125
121,105,124
121,101,123
120,102,123
120,104,121
121,104,132
114,104,122
118,104,124
121,104,123
173,104,124
120,99,122
121,102,123
119,105,123
121,100,122
120,94,123
121,104,122
126,102,124
120,104,123
122,104,124
122,102,123
120,104,121
121,89,125
118,108,124
120,104,122
121,104,124
120,102,125
120,102,124
121,103,123
121,104,125
121,102,123
121,104,124
120,100,123
121,97,123
121,101,124
121,103,123
116,99,123
121,101,123
120,102,123
123,104,123
132,101,124
120,101,124
120,102,122
121,102,124
120,101,123
120,100,124
117,102,123
122,109,124
121,97,123
121,101,122
121,102,123
124,100,123
122,99,123
120,100,124
115,103,122
121,102,123
125,105,121
121,102,123
120,101,123
120,104,78
120,103,123
120,101,123
120,101,123
110,102,122
118,101,124
120,102,128
121,102,125
118,101,124
121,101,125
122,102,139
121,101,123
120,101,122
121,101,124
121,102,110
121,102,124
121,89,123
126,102,124
120,102,123
121,102,124
120,98,123
119,102,125
123,99,125
119,102,123
120,102,125
121,102,123
123,101,125
121,102,123
118,102,124
115,105,125
121,102,124
113,100,124
120,102,124
120,101,126
120,101,123
121,90,123
120,101,122
120,100,126
121,101,124
120,101,124
122,102,125
121,101,129
122,101,123
124,114,126
122,101,123
120,100,122
120,102,123
124,102,118
121,102,123
119,101,123
121,102,123
131,106,124
121,102,123
121,102,123
124,100,124
121,101,124
121,100,122
121,102,123
121,104,123
122,101,123
147,103,124
120,101,122
121,102,123
121,101,123
120,101,124
120,101,124
121,101,123
117,101,123
121,101,123
121,102,123
120,101,124
121,102,123
121,104,122
117,104,124
123,102,123
121,101,124
121,102,124
121,100,123
120,102,123
121,102,124
121,101,124
120,105,123
121,101,124
120,102,123
121,102,175
121,99,123
121,101,123
118,102,123
120,102,123
120,99,124
121,102,123
121,102,123
121,101,124
120,102,129
120,108,123
121,101,123
120,101,128
125,101,123
120,101,130
118,102,124
120,102,125
121,101,123
123,116,124
121,101,123
121,101,133
122,103,123
118,101,123
118,102,123
117,102,126
117,101,123
121,102,123
121,102,123
121,101,124
121,101,148
121,102,126
121,101,125
121,100,124
106,100,124
120,102,123
121,101,124
120,101,124
121,104,122
121,101,125
122,100,124
119,101,124
121,102,124
120,101,124
122,102,124
121,102,124
120,101,124
119,100,121
121,101,122
121,102,124
121,101,123
120,101,123
121,101,123
120,101,124
121,101,124
119,161,120
121,99,123
121,101,122
120,100,123
121,101,124
121,102,124
120,101,122
122,98,124
120,104,124
121,101,122
121,100,123
121,102,123
124,115,88
118,102,122
120,103,125
121,102,122
116,102,123
120,101,123
118,101,122
120,101,122
119,104,123
121,101,120
122,102,123
123,102,123
120,101,122
118,100,123
121,101,123
121,99,124
121,101,124
123,100,125
121,101,122
120,104,123
120,101,125
122,102,122
122,102,123
123,100,124
121,105,123
118,104,124
122,101,122
120,102,123
120,102,128
121,102,123
121,100,124
122,101,123
120,101,123
121,101,123
121,106,124
123,101,123
121,100,123
121,101,124
120,104,124
121,101,124
121,102,124
121,101,124
116,104,123
119,102,124
120,102,124
120,101,124
124,101,124
121,102,124
121,103,123
120,104,123
121,102,123
120,101,121
120,102,120
120,101,118
121,101,124
121,101,125
120,104,123
122,103,129
121,100,123
123,101,113
118,100,125
121,101,124
121,100,124
120,105,123
122,101,124
122,100,124
118,102,124
120,100,126
121,101,124
121,102,124
121,100,123
121,101,123
121,104,124
124,90,123
121,101,123
126,100,123
120,101,124
115,101,125
121,101,123
120,102,124
122,102,120
123,101,123
121,104,123
121,101,123
120,100,124
121,101,129
120,101,125
120,101,123
120,104,123
120,102,124
122,102,124
121,102,124
121,102,128
120,105,123
120,102,117
128,102,125
120,102,124
120,102,124
144,107,124
120,103,124
121,103,125
122,103,123
122,104,124
122,102,124
118,101,124
119,102,123
120,102,124
121,102,124
117,100,124
120,102,123
120,121,124
117,102,125
120,104,125
120,101,110
121,102,124
120,102,126
120,103,122
120,101,121
120,101,124
120,110,123
122,102,125
120,102,124
121,102,122
118,104,123
120,102,125
119,101,124
119,102,125
121,101,124
120,102,124
120,102,124
121,101,125
118,105,121
117,102,126
120,102,125
120,101,124
121,102,124
121,102,122
122,101,124
120,101,125
120,105,124
121,102,124
120,104,124
117,102,125
120,102,124
119,97,121
120,102,124
138,102,123
120,104,123
121,103,124
121,102,124
119,102,124
121,102,122
117,99,123
118,104,128
120,98,120
121,104,126
121,103,123
120,102,130
122,104,124
118,104,132
118,102,123
120,104,125
120,102,125
120,99,124
121,102,123
121,100,124
129,105,124
120,103,125
121,102,123
120,103,124
120,103,112
121,101,124
120,101,123
120,102,128
110,111,125
119,104,124
121,106,124
120,102,124
121,101,124
120,103,119
121,101,124
121,100,124
120,100,124
124,102,123
120,102,124
120,104,123
120,100,122
120,107,124
121,105,123
121,102,123
118,102,123
120,102,123
117,102,124
119,102,124
118,102,124
118,105,124
122,103,125
121,103,123
120,102,124
120,102,123
121,102,123
118,102,129
120,104,125
117,102,126
120,102,124
120,102,129
120,103,124
120,102,190
120,102,123
120,90,107
123,104,124
122,103,123
121,101,124
118,100,123
121,103,124
123,101,124
119,102,128
111,99,124
118,102,124
120,102,124
121,101,123
121,102,124
120,100,123
120,100,124
120,104,124
120,102,125
120,102,124
121,102,126
117,107,128
120,103,124
121,102,124
117,100,124
123,104,124
121,102,124
122,97,124
121,102,124
113,102,124
121,101,125
120,104,122
121,102,124
125,104,125
120,102,124
122,99,125
118,102,124
121,102,124
120,104,121
116,101,124
120,102,124
121,102,123
120,102,124
120,102,124
114,105,124
120,102,125
121,115,121
118,102,124
121,104,122
120,102,124
116,90,124
121,102,123
105,102,124
121,100,125
122,101,124
118,101,124
124,101,124
120,102,125
110,102,124
120,102,124
121,103,123
123,102,123
120,100,123
121,102,128
121,152,123
121,101,123
121,103,124
120,101,126
116,102,123
118,106,124
121,103,124
120,102,123
118,102,124
121,106,124
120,102,124
122,105,130
120,101,133
116,102,124
120,101,122
120,102,125
121,102,135
119,101,123
126,104,124
121,102,124
120,99,113
122,102,124
119,102,124
117,102,131
121,106,124
120,106,124
118,105,125
117,103,124
122,98,124
120,104,124
122,108,124
120,101,124
120,100,125
120,104,124
118,102,124
118,102,124
121,103,124
120,104,125
118,102,125
121,89,123
118,102,122
121,101,124
121,104,124
123,101,126
118,102,124
120,105,124
118,100,122
121,97,124
120,98,123
122,99,124
120,102,124
117,102,124
120,102,124
120,102,125
120,106,126
120,106,124
118,100,125
121,100,124
121,101,124
116,104,124
120,103,123
120,102,122
120,104,124
121,102,125
120,102,128
120,101,124
118,102,124
121,100,123
117,99,113
121,100,123
118,105,124
