sensor_0,sensor_1,sensor_2
3848,478,1921
3848,478,1920
3848,477,1920
3846,477,1919
3848,478,1918
3848,481,1918
3849,479,1917
3848,478,1917
3845,473,1917
3848,478,1917
3848,478,1910
3848,478,1916
3849,479,1916
3848,478,1915
3836,478,1915
3848,477,1915
3846,478,1914
3848,478,1915
3846,478,1914
3849,479,1915
3845,478,1913
3847,478,1914
3850,478,1913
3854,477,1913
3848,477,1911
3850,477,1912
3848,480,1910
3848,477,1911
3851,477,1909
3844,477,1909
3848,476,1910
3847,474,1896
3847,478,1909
3848,476,1909
3849,478,1908
3848,479,1908
3849,477,1908
3848,477,1907
3848,477,1907
3838,476,1906
3848,479,1907
3849,475,1907
3846,475,1909
3848,477,1900
3848,474,1907
3848,477,1907
3848,475,1905
3848,476,1904
3848,464,1906
3848,477,1907
3851,480,1906
3849,476,1904
3846,475,1907
3849,476,1906
3849,474,1904
3850,476,1906
3847,475,1906
3848,475,1905
3850,475,1892
3846,475,1906
3849,475,1904
3847,475,1905
3865,477,1907
3849,477,1906
3849,475,1906
3848,475,1907
3848,475,1905
3849,475,1909
3849,473,1905
3845,473,1905
3848,475,1906
3848,476,1914
3848,475,1907
3849,474,1909
3848,475,1905
3848,471,1909
3848,483,1907
3850,473,1907
3845,475,1907
3848,474,1908
3849,474,1914
3850,474,1907
3849,473,1908
3850,475,1906
3849,474,1909
3851,474,1908
3849,473,1916
3839,473,1908
3845,476,1909
3844,474,1910
3846,473,1910
3844,473,1909
3845,474,1909
3845,473,1909
3846,473,1910
3845,473,1905
3846,473,1909
3845,472,1908
3844,475,1910
3807,473,1940
3840,474,1911
3845,472,1909
3844,472,1909
3845,473,1909
3845,473,1908
3846,473,1906
3849,473,1909
3844,472,1910
3845,473,1910
3844,505,1912
3846,472,1910
3844,493,1910
3845,468,1910
3844,473,1909
3850,472,1908
3845,472,1907
3844,472,1909
3844,472,1909
3843,470,1909
3842,470,1909
3848,469,1909
3845,470,1909
3844,470,1909
3845,470,1908
3844,470,1912
3843,476,1908
3846,473,1908
3848,471,1908
3849,471,1908
3844,470,1908
3845,472,1908
3844,474,1907
3844,470,1908
3846,472,1906
3844,470,1902
3845,471,1906
3844,469,1906
3844,471,1906
3845,471,1905
3844,470,1908
3845,468,1905
3844,469,1905
3842,472,1905
3844,470,1909
3845,470,1903
3844,469,1903
3840,469,1904
3844,471,1905
3844,470,1904
3844,470,1901
3849,467,1902
3845,470,1901
3844,469,1904
3844,469,1899
3844,472,1903
3812,469,1899
3865,470,1901
3844,469,1901
3850,469,1900
3844,465,1901
3845,470,1898
3844,471,1896
3844,470,1900
3845,469,1898
3844,468,1899
3844,468,1899
3844,469,1897
3843,469,1899
3844,468,1894
3845,470,1894
3842,468,1897
3844,469,1894
3843,468,1896
3844,473,1893
3845,469,1897
3847,468,1893
3845,468,1896
3846,451,1893
3844,469,1893
3848,468,1897
3844,467,1869
3844,468,1892
3844,468,1887
3845,467,1891
3845,467,1891
3843,466,1893
3844,467,1892
3844,468,1891
3843,467,1891
3844,457,1877
3842,470,1889
3844,467,1890
3843,468,1890
3844,467,1889
3840,467,1889
3844,466,1889
3846,466,1892
3845,465,1890
3846,467,1889
3844,467,1888
3845,467,1920
3841,467,1890
3848,467,1888
3844,467,1887
3846,467,1888
3844,465,1892
3844,467,1887
3843,467,1891
3844,467,1888
3844,468,1886
3841,466,1889
3847,464,1888
3843,466,1888
3881,466,1888
3845,466,1888
3844,470,1885
3843,465,1888
3844,464,1886
3844,467,1886
3844,467,1887
3844,466,1888
3844,466,1887
3844,467,1887
3844,465,1886
3843,466,1884
3846,466,1887
3844,467,1890
3844,466,1886
3837,467,1888
3844,465,1886
3844,466,1888
3845,465,1888
3843,469,1887
3843,465,1888
3844,463,1886
3844,465,1887
3844,469,1888
3844,465,1899
3844,474,1888
3844,468,1888
3844,465,1888
3843,483,1888
3843,466,1889
3844,465,1887
3846,465,1888
3844,465,1888
3850,464,1889
3843,465,1896
3845,466,1888
3842,465,1889
3849,466,1888
3843,464,1889
3842,465,1888
3844,467,1896
3844,441,1712
3848,376,2127
3848,374,2129
3848,378,2126
3872,376,2127
3840,378,2127
3846,376,2128
3848,374,2128
3848,377,2128
3848,376,2121
3848,378,2130
3849,374,2127
3848,376,2128
3847,375,2130
3861,375,2129
3849,376,2130
3848,375,2131
3848,377,2132
3847,374,2132
3846,399,2131
3848,376,2132
3848,373,2134
3848,374,2131
3848,374,2131
3846,371,2132
3848,374,2131
3849,372,2131
3848,373,2132
3846,364,2126
3845,376,2131
3846,374,2130
3846,378,2131
3857,371,2129
3846,374,2132
3843,374,2129
3846,374,2112
3847,374,2130
3848,372,2131
3847,373,2130
3846,376,2133
3848,374,2128
3851,373,2130
3848,373,2129
3850,373,2129
3846,373,2130
3848,376,2127
3848,374,2127
3848,373,2129
3845,373,2129
3850,376,2128
3848,374,2129
3848,373,2129
3804,373,2129
3846,375,2130
3849,373,2129
3848,370,2128
3848,371,2128
3846,372,2126
3846,375,2138
3848,373,2128
3848,373,2125
3853,371,2128
3848,373,2129
3848,373,2126
3848,373,2133
3848,372,2126
3849,372,2134
3848,372,2140
3847,373,2125
3846,373,2127
3847,376,2125
3845,373,2125
3851,373,2125
3847,371,2125
3848,377,2125
3848,371,2126
3847,373,2127
3846,373,2125
3843,372,2124
3847,372,2123
3846,372,2124
3848,373,2121
3846,373,2124
3845,377,2124
3850,370,2123
3848,372,2124
3850,371,2122
3848,371,2122
3852,372,2123
3848,373,2122
3853,372,2121
3848,372,2122
3851,373,2122
3850,377,2121
3848,372,2120
3848,372,2119
3848,373,2120
3848,369,2118
3848,360,2119
3846,370,2121
3847,372,2118
3847,374,2117
3848,372,2116
3848,372,2117
3848,374,2096
3834,371,2119
3848,372,2116
3847,377,2115
3853,387,2115
3849,372,2115
3723,372,2114
3848,372,2113
3849,371,2085
3845,372,2108
3848,372,2115
3846,372,2112
3848,373,2111
3864,372,2110
3848,371,2115
3883,374,2109
3848,371,2110
3846,371,2112
3848,395,2110
3848,475,2108
3846,371,2110
3848,372,2108
3848,382,2106
3852,372,2107
3851,372,2106
3848,371,2110
3847,371,2105
3848,377,2108
3853,370,2106
3849,371,2104
3852,371,2104
3851,372,2104
3849,371,2168
3845,371,2105
3848,371,2104
3848,371,2102
3847,372,2103
3846,371,2104
3847,372,2100
3849,372,2084
3845,406,2103
3849,372,2101
3848,371,2101
3849,372,2102
3847,369,2100
3854,370,2102
3848,371,2100
3848,371,2101
3849,371,2092
3843,371,2100
3848,372,2101
3848,368,2136
3835,374,2099
3848,371,2099
3847,370,2101
3846,371,2100
3848,374,2100
3849,370,2100
3849,371,2098
3848,372,2101
3849,374,2096
3844,372,2099
3848,371,2098
3849,371,2100
3849,381,2099
3849,371,2098
3849,371,2098
3852,370,2098
3850,371,2098
3849,372,2098
3849,370,2100
3848,371,2104
3844,371,2099
3809,370,2096
3845,371,2099
3845,370,2098
3846,371,2115
3845,370,2097
3845,371,2098
3846,374,2100
3846,369,2098
3845,371,2097
3845,370,2096
3845,370,2096
3845,370,2097
3845,369,2080
3845,371,2095
3846,371,2095
3844,370,2094
3844,371,2097
3845,370,2091
3845,370,2092
3846,371,2098
3845,373,2099
3845,369,2092
3844,371,2093
3839,374,2093
3844,370,2094
3844,369,2092
3844,358,2091
3844,372,2092
3844,370,2088
3843,402,2091
3843,371,2092
3846,369,2092
3848,373,2091
3845,369,2091
3844,370,2091
3845,371,2089
3843,367,2090
3843,373,2092
3844,373,2080
3842,371,2089
3845,369,2090
3845,369,2080
3844,369,2085
3844,370,2089
3843,369,2108
3849,369,2088
3860,367,2091
3845,369,2088
3844,368,2088
3844,368,2088
3844,372,2082
4030,371,2088
3844,369,2086
3844,369,2085
3830,369,2086
3844,369,2085
3844,368,2085
3845,369,2086
3843,369,2086
3847,369,2084
3835,369,2084
3844,369,2084
3844,368,2084
3845,368,2085
3834,369,2085
3843,368,2083
3844,373,2084
3844,368,2087
3843,368,2083
3844,369,2080
3844,368,2079
3844,373,2081
3842,368,2085
3843,368,2082
3844,369,2081
3844,368,2080
3844,368,2080
3845,368,2080
3843,321,1901
3846,352,1788
3845,352,1788
3852,326,1787
3846,351,1787
3844,357,1788
3845,352,1793
3843,350,1788
3844,332,1787
3845,352,1788
3844,349,1788
3845,353,1786
3845,351,1785
3843,351,1790
3845,352,1787
3844,351,1788
3875,355,1789
3846,348,1787
3843,349,1789
3844,351,1787
3844,351,1785
3845,350,1786
3844,351,1787
3845,350,1787
3843,354,1787
3861,350,1785
3844,351,1784
3844,352,1786
3844,345,1788
3860,352,1787
3844,350,1783
3845,353,1786
3844,353,1785
3844,348,1786
3844,351,1786
3844,350,1785
3845,350,1785
3846,350,1786
3848,348,1786
3845,356,1784
3845,274,1784
3829,351,1782
3844,349,1781
3845,350,1782
3834,350,1778
3849,350,1780
3845,351,1780
3849,350,1781
3845,351,1780
3845,350,1780
3844,350,1780
3844,350,1781
3844,354,1778
3845,351,1779
3845,353,1779
3840,350,1643
3845,350,1778
3844,350,1779
3844,351,1779
3845,352,1780
3844,353,1779
3845,350,1778
3842,352,1778
3844,366,1777
3845,350,1777
3845,352,1779
3845,352,1778
3844,350,1777
3845,350,1777
3845,352,1776
3846,351,1778
3846,350,1772
3864,351,1777
3848,351,1776
3835,351,1778
3848,353,1774
3845,344,1776
3846,355,1776
3845,352,1776
3846,350,1777
3848,350,1781
3844,348,1777
3846,351,1777
3846,351,1777
3848,350,1777
3850,350,1777
3849,352,1778
3849,350,1778
3849,351,1792
3828,351,1777
3849,351,1777
3849,352,1777
3848,350,1773
3853,350,1778
3850,352,1777
3792,350,1778
3849,352,1779
3850,351,1776
3849,351,1774
3848,350,1778
3828,353,1778
3818,352,1777
3849,350,1772
3848,346,1777
3848,351,1776
3850,351,1774
3848,352,1778
3843,350,1776
3848,356,1776
3851,349,1776
3848,350,1776
3849,350,1780
3853,350,1776
3849,351,1776
3848,350,1776
3849,381,1772
3848,352,1801
3849,350,1775
3849,351,1777
3849,352,1776
3849,350,1777
3849,350,1776
3849,349,1777
3850,331,1774
3849,344,1776
3849,350,1777
3849,349,1777
3850,352,1785
3847,349,1774
3853,350,1776
3850,350,1775
3849,352,1776
3850,350,1777
3851,349,1776
3849,349,1778
3848,352,1776
3851,349,1766
3849,349,1775
3849,361,1774
3849,353,1775
3806,349,1776
3849,349,1776
3848,349,1777
3845,349,1776
3845,349,1776
3882,349,1762
3845,349,1773
3844,349,1776
3845,348,1774
3845,350,1777
3838,349,1777
3845,349,1776
3850,362,1777
3830,354,1773
3846,348,1777
3845,348,1776
3844,349,1775
3845,350,1776
3846,350,1777
3844,348,1777
3843,350,1778
3844,352,1776
3844,348,1777
3845,350,1773
3846,349,1776
3846,341,1778
3845,348,1753
3848,349,1777
3851,348,1777
3844,349,1777
3845,349,1778
3844,331,1778
3844,349,1777
3844,348,1794
3844,348,1777
3846,349,1777
3844,348,1778
3827,348,1778
3845,349,1778
3844,348,1780
3845,348,1777
3845,350,1777
3844,349,1787
3843,348,1779
3844,347,1777
3843,348,1777
3844,345,1774
3843,349,1778
3844,348,1777
3845,345,1777
3844,341,1778
3844,347,1776
3845,348,1779
3828,347,1781
3847,347,1777
3851,348,1776
3844,346,1777
3846,347,1777
3845,348,1777
3845,346,1777
3844,347,1776
3844,347,1778
3844,346,1820
3845,346,1777
3845,346,1772
3845,351,1778
3851,346,1778
3844,348,1782
3844,346,1780
3851,347,1777
3844,347,1779
3845,346,1766
3845,346,1780
3845,342,1779
3845,347,1780
3851,353,1780
3842,347,1779
3844,345,1780
3844,352,1780
3844,345,1781
3828,346,1779
3834,347,1779
3844,347,1779
3845,348,1779
3845,347,1781
3845,347,1781
3844,346,1780
3844,339,1780
3843,347,1779
3845,347,1781
3842,348,1782
3846,347,1782
3844,334,1780
3844,347,1781
3844,347,1780
3844,347,1782
3852,345,1785
3844,347,1782
3844,346,1782
3828,347,1785
3844,348,1785
3844,348,1784
3845,347,1784
3854,347,1784
3844,347,1784
3844,347,1784
3848,362,1785
3845,347,1785
3844,349,1789
3844,348,1784
3844,348,1784
3844,358,1785
3850,349,1785
3844,348,1782
3845,350,1785
3844,431,1748
3844,359,1810
3845,365,1809
3902,368,1809
3844,367,1805
3844,369,1809
3845,365,1809
3844,366,1808
3844,365,1806
3845,372,1806
3844,364,1809
3841,365,1808
3845,365,1805
3821,365,1806
3844,365,1804
3842,365,1804
3845,365,1804
3845,365,1807
3844,365,1804
3827,364,1804
3844,360,1795
3844,362,1803
3845,362,1802
3842,369,1803
3844,362,1817
3846,365,1801
3841,363,1801
3843,365,1802
3860,364,1801
3844,365,1802
3845,363,1798
3845,364,1801
3848,365,1801
3845,364,1797
3844,365,1801
3845,364,1801
3845,364,1806
3823,364,1800
3845,364,1799
3845,362,1803
3844,364,1797
3844,364,1799
3846,364,1798
3844,363,1803
3828,403,1798
3845,364,1798
3845,364,1796
3844,365,1797
3819,364,1797
3844,354,1796
3844,362,1796
3842,364,1796
3843,365,1817
3846,366,1795
3846,364,1796
3844,364,1796
3863,363,1795
3849,364,1794
3845,364,1796
3850,362,1794
3843,376,1793
3845,363,1799
3844,363,1797
3845,364,1794
3848,363,1794
3842,363,1795
3844,364,1793
3844,363,1792
3844,357,1792
3844,363,1792
3843,361,1789
3846,361,1793
3845,364,1790
3845,361,1792
3838,363,1792
3844,363,1789
3845,363,1791
3845,362,1789
3845,362,1789
3845,362,1789
3844,362,1789
3844,362,1791
3844,363,1789
3846,363,1789
3844,363,1787
3846,358,1790
3844,377,1792
3843,362,1789
3844,363,1785
3842,364,1803
3845,362,1785
3844,360,1790
3844,362,1784
3830,362,1785
3852,360,1784
3843,362,1784
3844,362,1784
3843,362,1781
3845,362,1782
3872,362,1784
3845,363,1782
3844,361,1782
3842,362,1784
3834,362,1781
3844,364,1780
3842,362,1780
3844,315,1779
3844,361,1780
3844,362,1778
3844,361,1779
3844,357,1778
3845,362,1778
3859,361,1778
3844,362,1777
3841,361,1778
3845,356,1777
3844,360,1778
3844,361,1775
3844,360,1757
3844,362,1777
3845,362,1775
3844,363,1776
3855,360,1776
3844,360,1774
3844,361,1787
3844,361,1772
3844,362,1773
3843,362,1773
3845,361,1773
3820,361,1775
3846,361,1773
3845,361,1772
3844,361,1774
3844,361,1772
3842,361,1772
3846,358,1773
3845,360,1773
3844,361,1771
3842,361,1776
3843,362,1771
3844,361,1769
3844,360,1769
3844,360,1769
3846,367,1769
3844,360,1769
3843,360,1768
3844,361,1770
3852,360,1769
3845,360,1768
3843,357,1768
3842,360,1769
3835,361,1763
3843,363,1766
3844,358,1768
3833,360,1766
3845,360,1764
3843,361,1764
3844,361,1766
3843,357,1765
3845,359,1766
3843,361,1764
3843,361,1765
3843,360,1764
3842,360,1764
3837,360,1764
3844,360,1761
3844,359,1763
3842,360,1763
3810,360,1761
3844,358,1758
3859,358,1761
3844,360,1763
3845,353,1760
3845,360,1760
3845,358,1755
3844,360,1760
3844,358,1757
3859,357,1756
3844,357,1760
3844,361,1761
3842,359,1757
3844,358,1758
3844,358,1756
3849,358,1756
3845,358,1758
3843,358,1756
3843,360,1756
3845,360,1755
3844,358,1755
3843,359,1755
3844,359,1754
3840,358,1754
3844,358,1754
3845,360,1706
3843,360,1756
3841,360,1753
3844,358,1753
3852,358,1748
3844,358,1753
3846,347,1752
3843,358,1751
3844,357,1750
3845,358,1752
3835,357,1750
3848,360,1750
3843,358,1750
3846,357,1750
3843,358,1749
3845,357,1753
3844,356,1746
3845,358,1749
3844,319,1748
3844,358,1748
3844,359,1748
3846,359,1749
3844,359,1746
3844,356,1747
3849,358,1746
3850,357,1747
3849,357,1749
3848,357,1746
3837,356,1746
3844,358,1746
3843,358,1747
3844,358,1745
3844,382,1744
3844,358,1745
3844,360,1748
3844,358,1749
3849,357,1745
3843,358,1757
3845,358,1744
3848,357,1745
3843,357,1745
3844,360,1745
3846,358,1739
3843,356,1741
3844,357,1742
3844,356,1740
3842,357,1749
3843,357,1739
3843,361,1740
3844,357,1746
3841,358,1742
3844,360,1739
3844,357,1739
3844,357,1742
3843,357,1734
3845,358,1746
3844,358,1737
3844,357,1738
3844,357,1737
3843,365,1737
3844,358,1737
3844,357,1737
3843,317,1840
3849,390,1932
3846,389,1931
3847,430,1905
3846,389,1932
3848,389,1930
3848,382,1933
3848,389,1930
3848,388,1932
3828,389,1932
3848,389,1934
3844,387,1932
3848,389,1932
3849,388,1931
3848,390,1922
3848,389,1932
3856,389,1930
3848,388,1931
3847,391,1934
3848,389,1932
3848,388,1931
3848,389,1931
3850,388,1931
3845,391,1931
3845,389,1932
3846,388,1907
3846,388,1931
3847,388,1932
3846,372,1924
3848,389,1930
3848,389,1932
3845,388,1932
3848,389,1931
3848,388,1929
3843,388,1931
3846,393,1931
3847,388,1930
3846,382,1931
3848,388,1931
3846,387,1930
3848,389,1930
3847,389,1931
3848,389,1930
3851,387,1930
3845,390,1930
3844,388,1930
3850,391,1932
3847,389,1932
3848,389,1930
3847,389,1973
3848,390,1930
3847,390,1931
3848,389,1936
3844,392,1928
3848,394,1931
3848,388,1928
3846,389,1929
3848,392,1931
3848,387,1931
3848,389,1930
3852,390,1931
3846,390,1929
3845,389,1930
3848,389,1930
3847,388,1928
3847,270,1923
3846,390,1930
3848,389,1929
3845,389,1930
3844,388,1925
3846,389,1928
3848,389,1930
3848,389,1929
3849,390,1932
3846,399,1925
3844,390,1925
3847,390,1925
3850,390,1924
3847,373,1925
3848,390,1925
3846,389,1926
3850,389,1928
3845,390,1923
3850,392,1925
3846,390,1925
3848,365,1925
3848,389,1926
3848,390,1925
3848,389,1923
3849,389,1923
3848,389,1922
3848,389,1920
3848,390,1922
3848,389,1922
3848,389,1929
3848,389,1922
3847,392,1922
3848,385,1946
3848,389,1922
3848,389,1921
3848,386,1921
3875,390,1921
3848,394,1920
3848,389,1918
3846,389,1920
3846,389,1920
3850,389,1920
3848,388,1963
3848,389,1920
3847,390,1918
3848,390,1918
3847,388,1918
3849,389,1918
3848,322,1917
3845,389,1915
3848,389,1917
3848,389,1916
3848,389,1913
3848,392,1916
3846,394,1915
3848,388,1915
3848,388,1915
3845,393,1916
3848,389,1913
3848,388,1914
3847,391,1913
3847,390,1914
3851,388,1914
3848,388,1913
3851,388,1912
3846,391,1913
3850,388,1913
3848,388,1913
3850,387,1912
3848,388,1909
3846,389,1912
3845,389,1910
3848,388,1909
3848,387,1907
3846,388,1907
3845,389,1912
3846,388,1909
3848,387,1914
3848,425,1892
3846,388,1908
3846,389,1907
3847,389,1906
3835,386,1906
3848,389,1906
3847,388,1905
3848,388,1905
3847,389,1907
3845,389,1905
3846,387,1963
3850,386,1903
3846,387,1903
3833,386,1903
3846,388,1904
3840,388,1902
3847,387,1902
3848,387,1900
3847,384,1899
3846,388,1901
3847,386,1902
3848,387,1899
3849,386,1905
3847,386,1899
3848,382,1899
3848,385,1897
3846,388,1899
3848,390,1900
3848,390,1897
3847,386,1897
3846,385,1938
3848,386,1896
3872,385,1897
3846,386,1897
3850,387,1894
3846,387,1899
3861,432,1894
3849,385,1893
3848,385,1893
3848,387,1896
3845,385,1892
3849,386,1893
3847,377,1893
3848,386,1894
3849,386,1892
3848,387,1892
3847,386,1890
3848,388,1892
3848,385,1892
3847,386,1890
3846,386,1891
3843,386,1890
3848,386,1899
3853,385,1889
3846,387,1888
3848,388,1889
3848,386,1889
3848,384,1887
3848,386,1888
3829,385,1889
3848,386,1884
3842,385,1888
3847,385,1891
3845,384,1887
3846,385,1889
3848,384,1887
3848,385,1886
3846,384,1887
3848,385,1888
3848,386,1885
3846,386,1886
3851,384,1884
3848,381,1884
3846,375,1885
3848,387,1885
3847,384,1883
3848,388,1884
3845,387,1883
3844,386,1883
3847,385,1884
3873,383,1882
3846,385,1882
3844,385,1883
3855,384,1885
3862,385,1882
3846,385,1776
3846,386,1913
3847,386,1880
3845,384,1878
3837,385,1883
3847,386,1876
3848,386,1878
3849,384,1877
3848,385,1875
3846,386,1876
3851,385,1885
3849,384,1876
3848,386,1875
3846,384,1872
3846,385,1872
3846,387,1877
3848,382,1874
3847,359,1869
3846,386,1873
3848,384,1869
3849,385,1875
3847,384,1870
3846,385,1872
3846,386,1871
3848,384,1871
3848,384,1873
3847,385,1870
3843,340,1704
3845,409,1861
3843,408,1862
3843,428,1862
3844,409,1862
3842,408,1862
3883,403,1861
3843,407,1862
3848,409,1864
3843,411,1851
3845,408,1864
3844,404,1864
3844,409,1862
3844,408,1865
3846,408,1865
3854,406,1866
3845,408,1865
3843,409,1864
3844,409,1858
3845,409,1875
3844,408,1861
3845,408,1876
3844,408,1866
3843,410,1866
3846,408,1865
3844,406,1868
3845,411,1867
3845,409,1867
3844,409,1867
3845,408,1860
3844,409,1868
3847,409,1870
3843,408,1866
3844,406,1868
3844,404,1869
3843,408,1868
3844,409,1869
3845,405,1869
3840,408,1867
3844,408,1870
3844,408,1869
3844,408,1870
3845,408,1870
3845,403,1873
3843,407,1871
3843,408,1870
3844,407,1870
3845,409,1868
3844,408,1872
3844,406,1870
3844,407,1870
3844,408,1873
3842,406,1871
3843,410,1873
3844,409,1875
3843,408,1899
3844,408,1874
3854,406,1865
3844,406,1872
3845,408,1872
3844,408,1871
3778,410,1873
3844,405,1874
3845,406,1873
3845,406,1877
3844,322,1872
3845,407,1870
3844,393,1871
3844,409,1874
3844,407,1873
3833,406,1874
3843,408,1873
3841,406,1874
3844,408,1874
3844,413,1874
3844,406,1875
3844,406,1874
3843,407,1875
3844,406,1875
3844,406,1876
3844,405,1876
3845,405,1877
3844,400,1876
3843,407,1876
3845,406,1876
3846,405,1890
3844,408,1876
3844,407,1874
3844,406,1878
3844,405,1877
3845,405,1876
3844,405,1885
3844,406,1877
3844,401,1878
3844,406,1875
3844,407,1880
3852,405,1877
3842,408,1877
3851,406,1878
3844,406,1880
3844,406,1878
3843,406,1880
3845,404,1880
3845,407,1876
3843,406,1880
3840,405,1880
3844,406,1880
3845,405,1876
3844,404,1880
3849,406,1882
3843,409,1881
3844,405,1882
3845,406,1884
3844,404,1881
3844,404,1881
3844,405,1881
3845,405,1876
3844,406,1883
3845,404,1881
3846,402,1882
3845,405,1883
3845,405,1883
3845,411,1887
3846,405,1883
3851,402,1883
3844,404,1884
3849,404,1883
3850,404,1884
3848,402,1884
3848,405,1884
3849,404,1883
3848,405,1908
3848,406,1885
3848,404,1884
3848,404,1883
3848,402,1883
3847,403,1883
3848,404,1884
3848,404,1883
3847,405,1885
3848,404,1886
3847,404,1884
3848,400,1860
3838,404,1885
3847,387,1884
3848,402,1884
3866,402,1885
3846,403,1882
3848,404,1882
3848,403,1883
3848,403,1881
3849,402,1892
3845,403,1881
3844,403,1882
3849,404,1882
3857,404,1882
3848,402,1882
3892,402,1881
3846,402,1881
3846,404,1880
3848,404,1881
3845,403,1881
3846,400,1881
3845,402,1879
3845,403,1879
3846,404,1880
3848,402,1880
3847,401,1890
3845,400,1877
3845,402,1877
3841,404,1879
3846,402,1878
3846,400,1877
3846,401,1876
3844,401,1880
3846,402,1878
3848,397,1876
3846,402,1875
3846,402,1875
3848,403,1874
3846,401,1875
3848,402,1876
3848,401,1875
3838,401,1885
3848,401,1872
3845,404,1875
3846,403,1875
3848,398,1873
3845,401,1873
3846,402,1872
3846,401,1873
3841,402,1873
3846,401,1870
3846,401,1874
3846,403,1874
3846,401,1876
3848,402,1875
3848,401,1877
3848,402,1868
3848,401,1873
3848,401,1873
3847,401,1886
3845,401,1874
3845,405,1874
3857,406,1881
3849,403,1873
3847,403,1873
3846,401,1872
3846,400,1873
3846,398,1874
3846,401,1874
3846,387,1872
3852,401,1873
3848,401,1866
3847,401,1874
3848,381,1876
3845,395,1872
3846,400,1874
3860,401,1872
3847,400,1871
3847,401,1873
3848,401,1873
3846,401,1872
3850,401,1874
3846,401,1874
3848,397,1876
3848,398,1874
3846,400,1889
3844,399,1873
3849,398,1874
3847,400,1869
3846,401,1873
3848,399,1872
3826,400,1873
3846,401,1870
3846,400,1872
3844,401,1867
3848,400,1871
3845,399,1873
3847,399,1870
3830,389,1871
3846,400,1872
3846,401,1872
3846,399,1862
3846,398,1871
3848,400,1871
3875,401,1882
3847,400,1871
3848,398,1872
3845,398,1871
3847,397,1867
3846,398,1870
3848,400,1869
3847,398,1877
3846,399,1870
3847,428,1939
3844,422,1816
3843,422,1813
3843,422,1761
3843,422,1813
3845,436,1814
3845,422,1816
3843,425,1816
3845,428,1819
3848,421,1816
3869,421,1817
3848,422,1817
3843,424,1818
3849,418,1817
3842,423,1820
3837,422,1818
3841,421,1818
3842,406,1818
3843,422,1817
3844,421,1818
3844,420,1820
3843,422,1818
3843,422,1816
3842,422,1814
3844,421,1817
3844,421,1818
3845,421,1818
3843,422,1812
3854,434,1814
3842,421,1819
3843,420,1819
3843,422,1821
3836,421,1820
3844,421,1818
3842,421,1819
3844,423,1819
3845,421,1820
3843,421,1818
3844,423,1820
3842,425,1819
3843,421,1821
3845,422,1821
3844,421,1821
3842,424,1821
3810,422,1821
3843,419,1821
3843,422,1821
3841,423,1821
3843,421,1817
3843,421,1821
3842,420,1821
3841,422,1821
3843,422,1822
3833,421,1824
3844,420,1821
3840,402,1822
3844,423,1827
3844,419,1816
3825,422,1820
3842,423,1824
3844,422,1828
3843,421,1824
3845,420,1825
3843,421,1822
3843,420,1826
3843,424,1825
3843,420,1825
3838,417,1824
3842,422,1825
3843,420,1826
3844,419,1825
3843,419,1826
3845,420,1826
3843,421,1826
3845,420,1826
3843,377,1826
3859,421,1826
3843,421,1826
3843,418,1827
3843,420,1829
3836,422,1827
3825,420,1828
3845,420,1828
3841,420,1827
3843,421,1828
3842,420,1828
3844,421,1829
3843,419,1828
3841,421,1832
3843,421,1829
3845,420,1829
3843,421,1828
3842,421,1830
3844,416,1830
3843,418,1829
3844,419,1829
3843,421,1830
3846,421,1832
3843,421,1829
3844,420,1831
3848,419,1828
3842,421,1810
3843,419,1834
3843,418,1830
3844,419,1834
3842,420,1952
3843,421,1813
3844,419,1828
3842,420,1830
3843,425,1832
3854,419,1832
3843,419,1830
3844,436,1831
3837,418,1832
3843,420,1832
3843,419,1835
3844,409,1833
3845,419,1832
3840,417,1833
3846,418,1833
3842,420,1833
3844,419,1833
3843,419,1833
3844,418,1834
3844,419,1835
3843,422,1833
3843,419,1834
3845,419,1832
3844,419,1835
3843,418,1835
3843,419,1835
3842,420,1834
3844,418,1835
3844,420,1837
3844,418,1834
3843,417,1835
3844,419,1836
3845,417,1835
3843,418,1835
3846,416,1834
3845,420,1835
3843,418,1836
3844,417,1836
3843,417,1836
3843,418,1836
3844,418,1838
3845,416,1837
3841,418,1838
3844,418,1836
3843,418,1837
3844,417,1840
3837,417,1838
3844,418,1843
3844,418,1837
3845,418,1838
3843,417,1839
3841,418,1837
3843,418,1839
3844,416,1840
3844,410,1838
3843,440,1839
3843,417,1840
3844,414,1841
3843,416,1841
3843,406,1843
3843,417,1841
3841,417,1842
3843,416,1839
3842,422,1841
3843,417,1833
3842,416,1844
3845,416,1840
3832,417,1842
3843,417,1842
3848,416,1842
3843,416,1830
3827,416,1841
3843,414,1842
3843,415,1842
3837,415,1842
3843,417,1842
3843,415,1849
3843,416,1842
3844,404,1842
3845,416,1843
3841,416,1846
3844,416,1843
3850,413,1844
3844,443,1841
3843,415,1843
3845,415,1845
3842,413,1844
3842,417,1844
3844,415,1843
3843,414,1843
3843,414,1844
3843,413,1844
3843,416,1844
3843,414,1848
3848,413,1846
3843,412,1819
3842,414,1844
3844,414,1730
3843,417,1844
3853,414,1846
3844,414,1844
3846,411,1845
3843,414,1846
3844,415,1845
3844,413,1845
3846,413,1846
3846,413,1846
3843,414,1846
3843,413,1846
3843,414,1845
3844,412,1849
3844,412,1848
3843,411,1845
3845,414,1845
3843,413,1867
3838,413,1848
3844,413,1846
3845,413,1848
3844,413,1838
3843,414,1849
3846,448,1846
3844,414,1849
3843,412,1849
3842,413,1849
3844,411,1848
3843,413,1849
3838,397,1850
3844,414,1850
3844,412,1849
3805,413,1850
3852,413,1849
3844,412,1966
3845,414,1843
3844,412,1851
3842,417,1850
3844,413,1849
3844,412,1851
3844,412,1852
3843,413,1852
3844,412,1852
3843,411,1852
3842,416,1845
3845,411,1852
3845,411,1851
3843,412,1853
3791,412,1852
3843,413,1854
3843,511,1850
3843,412,1853
3843,411,1852
3838,409,1617
3843,308,1598
3845,307,1597
3850,307,1597
3845,306,1598
3853,307,1598
3844,306,1597
3845,308,1596
3844,307,1595
3844,306,1596
3844,306,1595
3844,306,1598
3837,308,1595
3844,305,1596
3844,309,1596
3844,307,1593
3843,307,1594
3845,308,1593
3845,309,1594
3845,336,1594
3844,306,1594
3843,301,1594
3845,308,1590
3843,306,1593
3829,308,1592
3844,306,1591
3845,306,1592
3845,306,1564
3845,306,1590
3846,306,1589
3844,307,1589
3844,306,1589
3845,306,1589
3845,306,1584
3844,306,1588
3844,305,1587
3844,305,1587
3846,306,1584
3844,307,1586
3849,305,1587
4053,306,1586
3844,305,1585
3844,306,1587
3845,304,1585
3844,305,1589
3845,305,1585
3854,306,1582
3843,306,1583
3844,306,1585
3845,306,1583
3845,305,1585
3845,303,1582
3845,305,1581
3844,305,1582
3845,308,1582
3846,305,1582
3845,306,1581
3845,304,1581
3845,307,1581
3845,305,1581
3845,305,1579
3846,305,1580
3853,306,1580
3845,305,1581
3846,305,1582
3850,288,1580
3848,307,1580
3846,301,1581
3846,306,1579
3845,306,1579
3848,306,1581
3849,305,1581
3850,308,1578
3849,307,1576
3849,306,1577
3850,307,1578
3850,306,1577
3848,305,1579
3850,305,1578
3849,306,1580
3849,306,1578
3835,302,1577
3848,305,1577
3852,307,1578
3849,305,1577
3849,306,1577
3846,306,1578
3850,306,1569
3848,305,1579
3851,305,1577
3846,307,1577
3846,306,1572
3849,306,1577
3845,304,1577
3845,303,1576
3845,280,1573
3845,307,1576
3847,306,1574
3848,306,1576
3848,305,1574
3848,304,1574
3848,303,1571
3846,306,1574
3847,305,1574
3845,305,1574
3848,305,1576
3848,312,1575
3848,305,1574
3854,304,1572
3849,304,1574
3846,307,1574
3845,306,1574
3846,305,1574
3848,305,1576
3849,305,1573
3847,310,1582
3844,305,1573
3850,308,1573
3846,305,1574
3846,309,1574
3848,305,1573
3845,305,1575
3848,305,1574
3848,305,1574
3848,306,1573
3848,306,1576
3848,305,1574
3847,304,1605
3846,302,1572
3846,303,1573
3848,306,1573
3849,304,1573
3847,304,1573
3867,306,1574
3848,304,1572
3844,305,1573
3846,302,1580
3846,307,1576
3845,306,1578
3848,304,1573
3848,305,1573
3848,306,1573
3848,306,1571
3848,317,1573
3848,306,1571
3846,307,1574
3845,304,1573
3849,305,1573
3848,305,1574
3845,304,1572
3848,305,1573
3848,303,1573
3849,303,1573
3846,305,1572
3849,304,1553
3848,305,1543
3843,304,1572
3844,304,1571
3846,304,1571
3849,306,1572
3848,304,1571
3847,304,1572
3846,305,1571
3848,305,1565
3846,304,1573
3848,304,1592
3843,305,1569
3846,306,1568
3869,305,1569
3845,304,1571
3848,304,1569
3846,304,1570
3845,305,1568
3847,303,1566
3846,304,1569
3844,304,1569
3838,305,1568
3848,304,1567
3844,304,1569
3844,306,1567
3848,303,1568
3846,305,1568
3846,304,1568
3847,304,1565
3848,303,1565
3846,307,1564
3846,302,1564
3848,302,1563
3850,304,1564
3848,304,1564
3846,302,1604
3848,339,1563
3848,305,1563
3847,304,1562
3848,303,1562
3848,306,1562
3845,302,1562
3848,304,1515
3840,304,1561
3848,304,1562
3849,293,1561
3848,302,1561
3844,302,1562
3848,304,1560
3845,303,1560
3861,302,1560
3848,304,1558
3846,304,1557
3848,304,1559
3848,320,1562
3847,303,1562
3849,305,1559
3848,304,1545
3846,304,1558
3847,304,1560
3847,307,1557
3856,304,1558
3846,301,1556
3852,304,1557
3849,304,1558
3848,304,1557
3845,304,1558
3840,304,1557
3848,304,1556
3848,304,1556
3858,303,1556
3848,302,1555
3848,304,1556
3848,305,1554
3847,302,1555
3848,304,1556
3845,304,1555
3847,304,1556
3848,303,1555
3848,304,1556
3848,304,1555
3846,286,1555
3846,304,1555
3848,300,1554
3846,304,1554
3846,306,1555
3846,303,1555
3847,304,1554
3846,304,1554
3840,303,1554
3848,305,1554
3850,306,1556
3846,305,1554
3849,304,1554
3847,304,1579
3845,305,1550
3851,304,1550
3847,305,1553
3853,305,1554
3848,304,1552
3846,347,1480
