sensor_0,sensor_1,sensor_2
3848,481,2104
3853,483,2103
3843,480,2101
3850,480,2102
3845,497,2100
3848,475,2100
3848,476,2101
3848,478,2102
3848,481,2105
3846,482,2100
3845,482,2100
3847,483,2100
3848,483,2101
3848,482,2100
3847,501,2099
3848,482,2100
3843,482,2099
3847,482,2106
3850,483,2099
3848,483,2100
3849,482,2098
3848,482,2097
3849,483,2097
3850,480,2096
3848,481,2097
3835,484,2090
3848,483,2098
3848,485,2111
3848,483,2096
3848,484,2097
3844,483,2094
3848,484,2112
3848,483,2096
3848,484,2096
3848,486,2095
3848,485,2097
3851,485,2096
3852,490,2097
3850,483,2096
3845,490,2094
3849,485,2093
3848,485,2093
3849,463,2093
3869,484,2093
3850,485,2092
3846,487,2092
3849,484,2091
3857,485,2092
3846,485,2090
3846,477,2091
3846,486,2091
3844,482,2091
3845,486,2091
3844,484,2092
3846,486,2091
3844,486,2090
3844,487,2091
3844,485,2091
3851,487,2090
3844,486,2089
3844,486,2091
3844,485,2089
3842,485,2089
3844,485,2088
3845,486,2065
3843,486,2089
3851,484,2088
3844,490,2080
3824,489,2089
3844,486,2082
3845,486,2089
3846,486,2087
3844,486,2088
3843,486,2089
3844,489,2086
3844,486,2092
3705,487,2087
3844,486,2089
3828,489,2088
3844,488,2088
3844,492,2090
3845,486,2086
3843,487,2091
3844,489,2089
3843,489,2089
3844,488,2089
3863,488,2089
3846,487,2088
3846,489,2088
3842,502,2088
3842,489,2084
3844,489,2087
3844,488,2088
3843,489,2087
3844,488,2088
3850,489,2089
3842,489,2089
3843,489,2088
3844,490,2089
3844,490,2088
3841,486,2089
3845,491,2086
3844,490,2088
3845,488,2088
3844,490,2089
3848,490,2089
3843,490,2089
3843,491,2082
3844,491,2089
3844,491,2089
3844,492,2088
3843,492,2089
3844,492,2089
3844,491,2088
3840,491,2089
3844,491,2083
3844,492,2088
3844,506,2086
3844,491,2090
3846,490,2089
3843,493,2088
3844,493,2086
3844,494,2088
3847,493,2088
3843,491,2086
3844,493,2086
3842,492,2086
3845,494,2086
3846,492,2089
3844,492,2093
3843,493,2086
3844,492,2088
3843,494,2088
3845,492,2088
3843,493,2086
3848,494,2086
3844,494,2086
3843,493,2088
3843,493,2089
3840,496,2086
3843,494,2060
3844,496,2086
3844,494,2075
3845,493,2092
3844,490,2086
3843,496,2086
3846,497,2085
3845,493,2086
3845,491,2085
3844,494,2104
3843,485,2085
3845,497,2088
3845,492,2086
3850,491,2088
3840,499,2083
3840,497,2086
3845,496,2086
3846,493,2086
3842,495,2088
3845,496,2085
3846,497,2091
3845,494,2085
3849,494,2085
3929,494,2086
3850,496,2085
3849,511,2089
3849,496,2086
3848,495,2085
3849,497,2085
3846,496,2086
3848,495,2086
3849,496,2088
3849,494,2085
3846,494,2086
3848,497,2086
3846,497,2085
3850,496,2086
3849,495,2087
3848,495,2086
3847,496,2086
3848,497,2088
3844,495,2086
3847,496,2086
3850,496,2085
3848,496,2088
3848,495,2086
3847,494,2104
3845,494,2086
3845,496,2086
3848,496,2089
3870,496,2075
3847,494,2086
3846,492,2086
3848,494,2086
3847,493,2087
3849,494,2086
3845,492,2084
3849,494,2086
3848,483,2087
3847,507,2086
3848,493,2085
3847,493,2085
3845,511,2085
3848,493,2085
3845,496,2085
3849,492,2085
3848,493,2084
3846,494,2088
3848,494,2084
3848,493,2085
3848,502,2084
3848,492,2084
3846,494,2086
3848,492,2082
3848,492,2085
3848,492,2072
3846,492,2083
3848,539,2084
3845,497,2084
3849,493,2086
3848,492,2086
3848,491,2083
3846,491,2084
3854,493,2085
3848,491,2085
3849,494,2085
3849,492,2086
3852,493,2084
3848,493,2090
3848,482,2086
3849,492,2084
3847,490,2083
3848,498,2084
3848,493,2085
3848,491,2084
3846,491,2085
3847,489,2084
3846,473,2084
3849,491,2085
3848,492,2085
3848,492,2083
3846,492,2084
3849,491,2084
3847,492,2085
3852,492,2079
3848,490,2084
3844,491,2085
3848,492,2084
3846,492,2097
3848,493,2086
3847,491,2084
3845,490,2085
3846,492,2084
3846,488,2088
3848,464,1838
3848,462,1811
3848,461,1810
3846,461,1811
3848,461,1811
3846,462,1811
3848,464,1810
3846,461,1812
3848,462,1812
3849,459,1812
3852,456,1811
3848,460,1813
3849,492,1811
3850,460,1812
3848,461,1811
3848,461,1817
3849,460,1812
3847,458,1811
3847,459,1812
3846,460,1839
3848,461,1813
3848,459,1813
3847,460,1812
3848,461,1812
3847,460,1828
3848,461,1812
3849,460,1814
3848,460,1813
3819,460,1814
3848,460,1812
3848,461,1817
3845,460,1813
3846,454,1813
3848,460,1816
3848,472,1813
3848,460,1814
3848,461,1812
3848,460,1813
3848,461,1814
3846,460,1814
3849,461,1815
3847,460,1815
3849,459,1805
3848,460,1814
3842,461,1813
3849,460,1814
3851,464,1814
3928,459,1814
3846,461,1814
3848,460,1814
3848,459,1815
3848,460,1813
3844,403,1816
3846,459,1819
3846,459,1814
3847,459,1816
3846,458,1814
3847,460,1812
3848,454,1814
3846,454,1814
3848,459,1812
3848,460,1810
3848,459,1815
3848,459,1817
3846,458,1814
3849,459,1811
3848,460,1813
3847,459,1814
3847,460,1813
3845,459,1813
3846,461,1833
3848,459,1817
3848,458,1814
3845,459,1816
3848,453,1826
3848,464,1817
3850,459,1816
3848,458,1814
3796,460,1814
3848,459,1817
3848,455,1817
3846,458,1814
3845,459,1814
3846,460,1817
3848,458,1817
3848,457,1813
3821,460,1814
3849,470,1814
3847,457,1817
3848,458,1816
3846,458,1816
3846,459,1816
3846,461,1817
3847,457,1817
3846,458,1816
3846,461,1816
3848,460,1856
3847,456,1817
3846,458,1816
3846,462,1786
3848,459,1816
3848,456,1817
3848,457,1817
3847,458,1817
3846,464,1817
3846,459,1817
3848,459,1817
3845,458,1819
3847,421,1816
3848,460,1820
3850,458,1817
3849,458,1817
3848,459,1818
3846,461,1818
3848,459,1819
3848,468,1817
3848,453,1818
3849,458,1818
3847,461,1835
3848,457,1821
3848,459,1817
3848,458,1819
3848,454,1824
3849,458,1819
3848,453,1819
3846,457,1818
3846,459,1818
3848,459,1819
3848,457,1818
3847,459,1818
3848,476,1818
3848,463,1819
3846,458,1819
3849,458,1819
3849,460,1819
3848,459,1818
3849,459,1829
3849,459,1820
3843,459,1818
3844,452,1819
3844,457,1820
3845,459,1819
3845,458,1817
3844,456,1818
3844,459,1818
3845,464,1819
3844,456,1818
3848,459,1814
3844,459,1818
3844,464,1819
3845,460,1818
3856,458,1819
3844,457,1818
3843,458,1818
3844,458,1819
3844,457,1818
3844,458,1820
3856,458,1819
3844,459,1820
3845,457,1818
3843,464,1818
3844,459,1821
3844,451,1821
3844,446,1820
3845,456,1818
3844,458,1819
3844,461,1819
3844,459,1820
3844,457,1820
3844,458,1820
3844,460,1820
3844,458,1820
3842,462,1820
3842,458,1820
3844,458,1820
3844,459,1821
3844,457,1769
3844,457,1821
3845,458,1820
3843,458,1820
3844,458,1820
3845,463,1817
3844,458,1820
3843,458,1822
3845,458,1819
3840,458,1829
3843,457,1821
3844,458,1821
3861,459,1822
3844,459,1822
3845,458,1821
3841,459,1821
3844,458,1820
3843,470,1821
3842,457,1821
3844,459,1822
3849,456,1821
3848,463,1822
3842,461,1824
3838,457,1823
3844,456,1821
3843,457,1822
3843,458,1822
3842,456,1823
3844,456,1825
3858,456,1818
3840,452,1821
3844,457,1821
3838,457,1822
3843,478,1824
3844,456,1827
3843,456,1822
3845,456,1821
3844,456,1821
3844,457,1822
3842,452,1821
3843,454,1822
3844,455,1821
3844,454,1822
3844,454,1821
3843,454,1821
3844,456,1820
3843,454,1845
3844,454,1822
3841,455,1821
3843,454,1824
3891,454,1823
3844,456,1821
3819,453,1822
3843,454,1825
3844,456,1825
3843,454,1826
3845,454,1822
3843,454,1819
3842,454,1821
3874,454,1821
3844,454,1822
3841,453,1820
3841,441,1821
3842,459,1820
3844,454,1819
3838,454,1820
3843,456,1819
3845,453,1818
3843,453,1820
3844,453,1818
3843,453,1819
3846,361,1817
3845,453,1816
3843,454,1817
3843,452,1816
3844,453,1816
3844,452,1816
3843,452,1818
3844,453,1816
3843,429,1890
3820,421,1713
3842,422,1653
3843,424,1715
3844,421,1715
3843,420,1714
3830,432,1713
3842,422,1714
3841,421,1714
3849,422,1714
3838,421,1713
3842,421,1714
3844,421,1707
3845,421,1713
3843,420,1712
3843,425,1711
3843,421,1716
3843,420,1714
3821,420,1712
3842,421,1712
3843,421,1709
3844,420,1713
3844,419,1713
3845,421,1710
3843,419,1701
3843,421,1713
3844,420,1709
3843,425,1712
3844,422,1710
3844,421,1714
3842,420,1710
3843,421,1713
3844,421,1710
3844,421,1710
3842,419,1710
3850,420,1710
3841,421,1708
3844,421,1709
3844,421,1710
3851,420,1709
3843,420,1709
3844,421,1707
3844,422,1709
3843,420,1708
3848,425,1707
3843,424,1705
3842,421,1708
3843,420,1707
3845,421,1707
3843,420,1706
3844,420,1707
3844,421,1708
3848,420,1706
3839,425,1706
3844,421,1707
3844,420,1706
3844,420,1707
3840,425,1706
3843,420,1704
3843,421,1705
3845,419,1697
3844,419,1691
3843,421,1704
3843,421,1704
3844,416,1701
3843,420,1701
3844,422,1700
3843,420,1704
3844,421,1701
3844,419,1701
3844,419,1700
3843,420,1699
3842,419,1699
3843,421,1702
3840,419,1700
3843,419,1699
3842,420,1699
3844,418,1713
3849,420,1689
3842,425,1699
3845,419,1697
3844,419,1697
3846,419,1698
3843,419,1694
3843,420,1696
3844,420,1696
3843,418,1696
3844,418,1698
3845,419,1694
3845,419,1694
3844,420,1694
3840,418,1693
3843,420,1692
3844,418,1692
3844,419,1692
3836,422,1689
3843,420,1688
3844,421,1692
3845,420,1691
3845,419,1691
3843,417,1691
3842,420,1690
3845,418,1691
3843,419,1692
3844,419,1690
3844,420,1690
3844,420,1690
3843,420,1691
3843,421,1690
3843,419,1688
3845,421,1690
3844,419,1690
3844,428,1690
3844,419,1689
3843,420,1689
3843,417,1705
3844,419,1692
3843,417,1690
3845,420,1690
3845,420,1690
3842,420,1690
3844,420,1691
3838,419,1697
3844,419,1690
3844,419,1689
3844,420,1689
3844,421,1690
3844,419,1691
3844,420,1690
3844,420,1691
3844,422,1690
3844,419,1691
3844,419,1692
3842,419,1691
3843,420,1691
3844,418,1686
3845,419,1691
3844,419,1691
3843,420,1690
3844,417,1690
3844,418,1692
3845,418,1691
3845,420,1691
3841,420,1691
3844,420,1691
3844,419,1693
3846,418,1695
3842,418,1692
3913,420,1691
3844,420,1681
3845,420,1692
3845,418,1693
3845,417,1694
3842,419,1696
3844,415,1697
3845,419,1696
3845,418,1695
3845,419,1696
3844,419,1696
3845,420,1687
3845,417,1699
3848,419,1697
3845,418,1696
3844,419,1697
3844,420,1699
3844,419,1698
3843,418,1699
3845,418,1697
3845,418,1698
3845,412,1699
3845,418,1699
3846,419,1699
3845,419,1700
3846,418,1703
3845,419,1701
3849,418,1692
3846,419,1701
3845,418,1699
3846,414,1686
3846,419,1690
3848,419,1701
3850,418,1717
3850,417,1703
3849,419,1701
3849,419,1702
3849,418,1704
3859,418,1703
3849,416,1704
3849,419,1704
3850,418,1702
3849,418,1704
3843,419,1704
3848,417,1704
3849,418,1705
3851,419,1708
3840,418,1705
3848,417,1708
3849,418,1705
3848,420,1704
3854,418,1705
3847,418,1705
3848,418,1706
3849,415,1704
3846,416,1705
3847,418,1705
3848,418,1705
3848,434,1705
3848,417,1705
3849,417,1707
3848,417,1704
3848,417,1704
3851,419,1705
3848,418,1714
3848,418,1704
3849,417,1705
3849,417,1705
3848,417,1705
3848,416,1706
3848,417,1720
3849,417,1704
3848,419,1704
3846,416,1708
3848,417,1704
3878,417,1700
3848,416,1702
3846,414,1705
3848,415,1701
3846,417,1702
3848,416,1701
3848,416,1702
3849,490,1702
3850,416,1701
3848,415,1702
3854,414,1701
3848,416,1704
3848,428,1700
3848,416,1701
3847,415,1699
3848,416,1701
3849,416,1700
3845,415,1699
3848,416,1699
3848,415,1703
3848,414,1699
3848,418,1702
3848,415,1699
3848,415,1697
3848,417,1696
3848,412,1699
3848,416,1705
3849,417,1697
3848,414,1699
3848,419,1697
3848,413,1697
3849,416,1696
3850,355,1645
3846,370,1773
3848,372,1772
3846,372,1784
3848,371,1770
3848,371,1773
3848,372,1771
3847,369,1770
3847,369,1773
3848,373,1772
3849,372,1771
3849,372,1768
3837,371,1772
3848,369,1771
3849,372,1771
3849,376,1772
3849,371,1771
3848,372,1770
3849,373,1770
3845,372,1808
3849,371,1766
3848,371,1770
3848,372,1765
3848,373,1769
3838,372,1770
3848,373,1768
3846,373,1765
3850,373,1769
3850,371,1770
3848,375,1766
3849,366,1767
3848,369,1770
3849,372,1766
3840,372,1766
3848,372,1766
3849,376,1766
3850,384,1765
3847,374,1766
3846,373,1766
3850,372,1763
3842,374,1763
3844,373,1761
3849,373,1764
3844,363,1763
3845,374,1765
3845,375,1765
3845,374,1764
3845,374,1764
3844,373,1763
3854,373,1750
3844,374,1761
3843,378,1780
3846,374,1760
3777,374,1760
3844,376,1760
3845,372,1761
3844,372,1761
3824,373,1759
3844,373,1757
3821,373,1760
3844,375,1758
3844,376,1757
3837,374,1757
3838,372,1757
3842,375,1756
3845,379,1757
3844,376,1758
3845,376,1757
3844,376,1756
3845,374,1756
3844,377,1758
3844,374,1761
3845,376,1755
3844,375,1756
3844,378,1756
3844,376,1756
3844,375,1755
3844,377,1765
3844,373,1754
3845,374,1754
3845,378,1757
3845,377,1754
3845,377,1753
3845,375,1754
3844,376,1753
3844,374,1752
3846,378,1734
3838,379,1752
3844,377,1755
3844,378,1752
3841,377,1752
3844,377,1755
3844,378,1752
3843,379,1751
3843,376,1752
3843,378,1755
3845,378,1777
3845,377,1747
3779,379,1750
3843,373,1768
3845,378,1749
3844,378,1749
3844,378,1748
3845,376,1749
3844,379,1749
3845,379,1752
3844,379,1748
3850,378,1749
3843,379,1747
3843,380,1746
3843,379,1747
3841,370,1746
3844,381,1746
3845,379,1745
3844,379,1755
3844,382,1745
3845,379,1744
3844,379,1744
3844,379,1744
3844,379,1741
3844,379,1742
3845,378,1746
3844,380,1741
3845,379,1741
3844,385,1742
3844,380,1739
3843,378,1739
3844,381,1740
3845,382,1740
3843,381,1738
3845,380,1738
3844,381,1738
3844,380,1737
3842,382,1736
3844,374,1737
3844,381,1737
3845,379,1737
3840,382,1736
3844,381,1737
3843,382,1734
3843,377,1734
3843,381,1734
3844,382,1736
3843,385,1734
3843,381,1733
3844,382,1732
3845,382,1733
3844,385,1733
3844,382,1733
3844,381,1735
3844,382,1734
3845,381,1731
3843,382,1744
3844,383,1732
3843,386,1731
3844,381,1837
3843,384,1731
3843,383,1732
3844,386,1730
3846,385,1732
3844,384,1731
3844,385,1731
3842,385,1726
3843,385,1730
3844,385,1731
3860,384,1731
3842,384,1728
3844,384,1730
3844,385,1727
3843,382,1729
3844,385,1729
3843,382,1728
3843,385,1728
3843,385,1728
3844,386,1729
3844,384,1728
3845,382,1728
3843,390,1728
3836,385,1726
3842,389,1725
3850,386,1880
3844,385,1728
3641,385,1727
3842,385,1730
3834,385,1726
3844,385,1725
3844,386,1723
3843,386,1724
3843,386,1725
3844,386,1724
3844,386,1725
3844,386,1725
3856,385,1724
3843,385,1722
3842,386,1722
3819,387,1722
3843,384,1722
3844,385,1723
3844,384,1719
3849,385,1721
3850,385,1716
3842,384,1720
3844,385,1721
3843,377,1720
3843,385,1720
3843,384,1720
3842,385,1723
3816,385,1718
3844,384,1718
3843,381,1707
3819,385,1718
3844,384,1718
3845,383,1717
3861,384,1716
3843,384,1716
3844,386,1718
3844,384,1716
3844,384,1716
3843,378,1716
3844,384,1718
3845,382,1715
3843,382,1699
3857,384,1717
3856,384,1715
3844,384,1715
3843,396,1712
3849,385,1713
3844,384,1712
3843,383,1714
3844,382,1712
3845,384,1710
3842,382,1713
3844,386,1713
3843,384,1713
3844,400,1712
3843,382,1712
3844,381,1712
3845,387,1712
3851,385,1712
3843,386,1710
3844,382,1712
3844,381,1656
3844,382,1710
3843,381,1714
3844,380,1710
3846,384,1710
3845,384,1710
3850,383,1706
3844,382,1710
3844,384,1709
3842,382,1709
3827,385,1711
3844,382,1710
3844,382,1707
3843,384,1713
3844,313,1402
3844,348,1402
3844,352,1401
3845,352,1401
3844,352,1401
3844,352,1400
3836,353,1399
3848,353,1401
3842,352,1400
3844,332,1402
3843,353,1401
3846,350,1401
3844,351,1400
3841,352,1400
3844,353,1401
3844,351,1400
3844,352,1401
3833,351,1400
3844,351,1398
3844,351,1400
3844,354,1398
3843,349,1400
3844,350,1396
3844,351,1398
3846,352,1396
3844,352,1397
3844,349,1398
3845,353,1396
3819,352,1398
3842,349,1397
3844,350,1390
3844,351,1396
3843,352,1396
3844,351,1397
3851,351,1396
3844,350,1396
3843,349,1395
3844,350,1395
3843,350,1395
3843,353,1395
3842,351,1394
3848,349,1397
3844,350,1394
3842,349,1393
3844,351,1394
3843,349,1396
3844,350,1393
3844,351,1394
3844,349,1392
3844,404,1394
3844,353,1390
3844,350,1392
3844,350,1393
3845,351,1392
3843,348,1391
3843,351,1392
3844,350,1392
3838,349,1392
3845,350,1391
3847,349,1392
3843,350,1391
3854,350,1390
3844,349,1392
3844,349,1391
3844,342,1393
3834,347,1390
3843,348,1389
3845,349,1392
3844,349,1394
3888,349,1389
3844,350,1386
3848,349,1389
3897,349,1390
3844,349,1388
3837,380,1388
3842,349,1388
3844,348,1388
3844,349,1389
3844,349,1392
3844,348,1390
3843,349,1386
3845,349,1397
3888,349,1387
3836,348,1387
3843,348,1386
3844,350,1387
3844,348,1386
3844,348,1385
3843,348,1386
3844,348,1386
3841,350,1386
3860,347,1385
3844,349,1386
3844,349,1386
3843,347,1388
3844,341,1385
3844,348,1386
3844,348,1386
3844,347,1386
3844,349,1386
3843,341,1386
3844,347,1386
3844,348,1385
3844,348,1383
3844,347,1387
3845,348,1384
3844,347,1385
3843,346,1385
3846,348,1385
3843,348,1379
3844,348,1386
3845,348,1383
3844,347,1385
3846,348,1385
3843,348,1388
3844,346,1401
3845,347,1385
3844,338,1385
3843,345,1385
3861,347,1386
3950,346,1384
3844,347,1385
3841,347,1384
3844,347,1387
3842,347,1384
3845,346,1384
3844,348,1384
3844,346,1384
3846,348,1385
3844,347,1384
3844,347,1384
3845,346,1313
3844,347,1384
3844,347,1385
3844,347,1384
3843,346,1380
3844,346,1382
3845,347,1382
3845,347,1384
3842,346,1382
3844,363,1384
3845,352,1384
3835,346,1382
3844,346,1382
3845,346,1383
3844,346,1384
3844,347,1382
3844,347,1382
3845,346,1377
3843,346,1381
3844,346,1382
3843,336,1381
3844,346,1384
3843,345,1380
3844,345,1371
3845,346,1382
3845,346,1388
3845,345,1381
3844,345,1382
3843,345,1381
3845,346,1380
3844,346,1381
3844,344,1381
3843,345,1374
3845,343,1382
3844,345,1381
3848,346,1382
3861,345,1380
3848,341,1381
3845,344,1381
3845,346,1380
3843,345,1377
3845,346,1395
3845,344,1380
3849,344,1382
3845,344,1381
3858,345,1379
3844,345,1380
3850,345,1380
3844,345,1389
3844,345,1380
3845,342,1380
3845,344,1380
3846,346,1382
3846,345,1380
3844,342,1380
3845,346,1380
3845,347,1380
3845,344,1382
3845,342,1381
3846,348,1381
3845,344,1380
3846,344,1379
3846,344,1380
3845,342,1380
3845,216,1380
3846,345,1381
3844,345,1381
3845,343,1380
3845,342,1380
3846,344,1400
3848,345,1329
3850,344,1379
3850,342,1381
3860,342,1385
3852,343,1380
3848,349,1380
3849,342,1379
3850,340,1381
3846,342,1381
3850,340,1380
3849,348,1380
3849,346,1381
3838,342,1380
3849,343,1380
3848,345,1380
3851,345,1379
3849,342,1380
3841,342,1380
3848,343,1380
3852,342,1379
3848,342,1378
3852,344,1379
3848,342,1380
3846,342,1380
3846,394,1378
3845,344,1381
3846,341,1378
3850,341,1378
3847,344,1368
3847,345,1378
3848,344,1378
3846,358,1379
3842,342,1379
3848,341,1378
3848,304,1377
3851,344,1374
3848,349,1378
3848,347,1354
3847,341,1377
3848,342,1377
3849,343,1377
3841,346,1383
3849,342,1377
3826,341,1376
3848,342,1377
3848,341,1372
3848,344,1377
3848,341,1377
3848,341,1377
3848,341,1377
3848,342,1378
3846,345,1377
3848,341,1376
3847,324,1372
3848,354,1310
3846,347,1481
3846,349,1482
3846,349,1476
3848,354,1480
3846,349,1480
3846,348,1478
3846,340,1475
3864,348,1480
3846,349,1478
3841,348,1478
3838,316,1477
3846,349,1476
3846,349,1477
3846,348,1476
3846,353,1473
3848,349,1476
3847,350,1473
3845,349,1475
3846,348,1466
3850,345,1502
3848,349,1475
3848,352,1478
3846,349,1489
3846,349,1475
3848,349,1477
3846,349,1474
3846,350,1474
3846,348,1474
3846,350,1473
3844,348,1473
3845,346,1472
3848,349,1493
3847,349,1472
3849,349,1472
3838,349,1472
3865,348,1471
3846,351,1471
3848,356,1475
3848,349,1473
3846,347,1467
3848,348,1470
3848,349,1472
3848,349,1470
3846,351,1468
3851,352,1473
3846,350,1470
3846,349,1468
3847,353,1469
3848,350,1469
3843,350,1469
3846,352,1469
3847,348,1468
3847,349,1468
3848,332,1470
3846,348,1469
3846,350,1468
3848,347,1469
3842,347,1468
3846,350,1468
3846,354,1468
3846,349,1467
3846,350,1467
3846,348,1467
3848,347,1469
3848,349,1467
3845,350,1467
3846,346,1456
3846,348,1466
3846,348,1466
3848,349,1466
3848,348,1467
3848,349,1465
3844,350,1466
3846,348,1470
3846,348,1464
3846,349,1466
3848,348,1464
3847,348,1464
3845,348,1465
3848,339,1474
3846,348,1464
3845,348,1456
3846,350,1462
3865,346,1460
3847,347,1464
3848,348,1461
3845,347,1460
3848,348,1462
3846,348,1461
3848,347,1461
3847,347,1461
3849,348,1453
3845,347,1461
3846,347,1460
3848,349,1460
3841,341,1460
3846,347,1461
3850,348,1460
3848,346,1459
3848,238,1459
3848,347,1459
3849,347,1459
3846,347,1459
3846,346,1459
3848,338,1459
3846,232,1459
3846,348,1459
3848,347,1368
3847,348,1463
3848,345,1460
3850,347,1461
3846,347,1457
3848,347,1466
3849,347,1458
3846,346,1457
3846,345,1457
3848,348,1453
3848,346,1455
3848,347,1457
3848,348,1456
3857,354,1456
3846,347,1456
3846,347,1456
3849,348,1456
3844,346,1456
3846,347,1454
3845,346,1455
3848,347,1457
3861,347,1451
3846,347,1456
3847,345,1455
3846,349,1458
3846,347,1454
3848,346,1454
3848,347,1454
3848,347,1454
3847,346,1453
3847,349,1453
3848,348,1452
3848,347,1453
3848,347,1451
3846,353,1452
3846,347,1451
3844,348,1452
3846,347,1422
3848,347,1450
3848,348,1451
3849,347,1449
3848,348,1449
3846,347,1449
3846,346,1449
3848,346,1452
3849,349,1448
3848,348,1447
3848,347,1429
3847,346,1448
3846,346,1448
3846,346,1447
3849,348,1445
3847,348,1446
3851,346,1446
3847,348,1445
3851,343,1445
3846,348,1446
3845,348,1444
3848,346,1445
3848,346,1443
3848,347,1444
3842,348,1443
3848,348,1450
3845,348,1445
3848,337,1444
3847,348,1443
3848,334,1450
3847,347,1444
3848,347,1444
3845,348,1445
3849,348,1443
3848,348,1443
3848,350,1444
3848,389,1454
3848,349,1442
3846,347,1443
3846,349,1443
3847,348,1443
3848,347,1444
3848,345,1442
3848,349,1441
3845,349,1443
3845,346,1443
3848,350,1443
3847,348,1443
3846,348,1510
3845,349,1442
3848,349,1444
3851,348,1444
3876,350,1444
3848,348,1443
3848,350,1444
3848,349,1444
3848,350,1443
3847,349,1455
3846,348,1423
3848,349,1444
3848,349,1445
3851,349,1444
3844,349,1443
3847,350,1450
3848,353,1445
3848,348,1444
3852,345,1444
3846,352,1444
3847,350,1446
3848,350,1460
3850,349,1443
3846,349,1445
3847,350,1445
3848,352,1452
3861,351,1445
3846,348,1444
3847,350,1445
3846,348,1446
3849,350,1446
3845,350,1446
3846,349,1445
3846,352,1446
3848,349,1446
3848,350,1448
3849,350,1446
3848,350,1448
3851,305,1389
3846,350,1459
3850,352,1449
3849,349,1445
3816,349,1449
3849,349,1450
3848,349,1456
3848,350,1450
3848,349,1453
3838,349,1449
3845,482,1450
3845,350,1450
3845,356,1452
3846,350,1452
3846,350,1453
3844,350,1452
3845,362,1450
3844,350,1454
3844,349,1453
3844,350,1453
3844,354,1453
3844,350,1454
3845,350,1448
3844,350,1454
3844,310,1365
3840,333,1406
3840,334,1407
3840,286,1406
3841,335,1406
3840,333,1405
3841,335,1405
3840,333,1406
3842,334,1408
3839,333,1406
3828,334,1405
3840,335,1406
3840,334,1409
3840,308,1408
3838,333,1408
3840,333,1408
3841,335,1408
3842,333,1406
3841,333,1409
3841,337,1406
3843,334,1408
3842,334,1408
3842,331,1408
3842,334,1409
3848,334,1409
3842,323,1408
3842,328,1408
3842,332,1408
3843,331,1410
3846,318,1409
3842,333,1412
3844,333,1409
3842,334,1409
3844,333,1409
3843,333,1393
3848,334,1412
3843,334,1410
3839,333,1409
3843,333,1409
3844,334,1410
3845,334,1412
3844,335,1409
3844,334,1409
3842,333,1410
3846,332,1410
3833,334,1411
3844,334,1410
3845,333,1411
3811,331,1410
3845,331,1410
3844,335,1410
3844,335,1410
3844,334,1411
3848,333,1411
3847,334,1411
3845,333,1411
3848,334,1410
3846,333,1412
3843,335,1404
3845,346,1412
3845,333,1411
3844,334,1410
3846,335,1412
3845,333,1413
3849,332,1413
3845,326,1409
3837,334,1413
3846,334,1412
3845,333,1414
3850,334,1413
3845,334,1413
3845,336,1376
3845,336,1412
3845,317,1414
3846,333,1413
3810,333,1412
3845,334,1414
3850,324,1414
3846,334,1413
3845,334,1416
3845,334,1409
3848,334,1414
3844,334,1414
3849,334,1414
3845,334,1421
3846,337,1413
3821,334,1413
3846,334,1414
3844,334,1414
3846,333,1415
3845,335,1416
3844,334,1414
3845,334,1414
3845,334,1416
3843,332,1416
3843,334,1416
3848,333,1416
3844,334,1416
3845,387,1418
3846,333,1416
3843,335,1415
3845,333,1416
3853,334,1416
3846,334,1418
3845,334,1418
3846,333,1416
3845,333,1417
3846,347,1408
3846,336,1417
3845,334,1427
3846,333,1429
3847,335,1436
3846,333,1418
3846,333,1417
3844,336,1416
3846,334,1418
3846,332,1419
3845,333,1419
3844,333,1418
3850,333,1402
3846,333,1418
3846,283,1418
3844,333,1419
3859,333,1419
3846,333,1418
3848,332,1420
3844,333,1419
3846,333,1419
3848,332,1419
3848,332,1420
3846,333,1418
3843,332,1419
3836,332,1419
3846,332,1420
3846,330,1420
3846,333,1419
3848,336,1419
3846,333,1419
3846,333,1420
3846,332,1420
3846,331,1420
3846,332,1420
3844,331,1419
3845,334,1422
3846,330,1421
3847,332,1421
3847,332,1420
3846,332,1420
3845,332,1420
3846,332,1421
3853,332,1420
3846,331,1421
3845,331,1419
3845,329,1420
3849,332,1419
3846,332,1402
3846,331,1380
3847,331,1413
3846,331,1419
3845,336,1435
3846,333,1418
3853,333,1418
3846,332,1419
3846,331,1418
3846,332,1419
3846,332,1418
3846,332,1417
3844,332,1417
3845,331,1415
3846,331,1414
3843,332,1415
3846,326,1413
3849,332,1414
3846,332,1446
3846,332,1414
3851,331,1413
3847,332,1413
3848,316,1414
3845,332,1417
3850,333,1414
3844,331,1413
3845,331,1413
3846,333,1414
3846,314,1414
3846,322,1413
3846,331,1414
3849,332,1416
3846,331,1414
3846,332,1414
3846,331,1414
3846,336,1414
3846,332,1414
3846,331,1416
3848,334,1414
3849,332,1414
3844,331,1429
3846,332,1416
3826,331,1417
3849,331,1417
3851,331,1417
3836,331,1411
3845,331,1415
3845,331,1418
3846,331,1417
3846,330,1420
3846,333,1417
3847,332,1419
3849,330,1420
3852,331,1420
3844,328,1419
3845,332,1420
3846,332,1420
3846,332,1421
3847,333,1421
3846,331,1421
3848,347,1422
3847,322,1422
3846,331,1423
3847,331,1422
3844,325,1423
3821,332,1425
3846,332,1425
3848,329,1426
3846,329,1425
3847,331,1425
3846,332,1424
3845,332,1428
3846,332,1427
3846,331,1427
3848,320,1430
3846,331,1429
3846,333,1428
3846,332,1388
3848,332,1428
3848,332,1428
3846,331,1428
3848,331,1427
3857,330,1428
3844,331,1429
3846,426,1429
3846,332,1420
3847,331,1429
3848,331,1425
3846,330,1430
3844,329,1429
3844,330,1432
3848,332,1426
3846,330,1434
3848,330,1433
3846,331,1433
3846,330,1432
3843,331,1430
3845,331,1434
3844,332,1432
3846,333,1507
3847,339,1109
2594,302,1198
2594,300,1198
2594,301,1198
2590,302,1198
2592,305,1194
2593,304,1201
2593,301,1199
2595,302,1199
2590,308,1199
2592,304,1200
2589,303,1200
2590,301,1200
2589,302,1200
2589,302,1200
2587,304,1205
2588,304,1201
2587,303,1201
2513,302,1201
2588,305,1200
2587,305,1202
2586,303,1201
2585,321,1201
2584,302,1201
2584,302,1201
2584,305,1199
2583,296,1204
2582,301,1202
2581,302,1202
2578,302,1201
2579,302,1203
2580,303,1202
2579,299,1206
2580,302,1202
2580,291,1201
2577,302,1203
2577,302,1201
2576,302,1203
2577,305,1203
2576,301,1202
2577,302,1203
2577,294,1203
2576,301,1204
2684,302,1203
2573,301,1232
2575,301,1203
2574,301,1204
2569,305,1204
2573,301,1203
2571,301,1204
2562,300,1204
2570,301,1202
2570,303,1205
2563,302,1208
2560,301,1204
2571,302,1205
2569,302,1204
2624,302,1205
2569,300,1205
2568,301,1204
2568,302,1190
2566,300,1206
2566,301,1205
2566,303,1206
2566,287,1206
2567,300,1206
2566,302,1206
2633,299,1206
2565,294,1206
2566,290,1206
2565,302,1208
2565,300,1208
2566,300,1210
2564,302,1205
2562,302,1209
2563,301,1210
2552,301,1208
2561,301,1209
2564,298,1209
2563,302,1209
2563,301,1209
2562,301,1210
2563,302,1208
2562,302,1209
2561,300,1211
2562,300,1211
2561,305,1212
2559,151,1210
2560,301,1210
2560,302,1211
2561,298,1217
2562,300,1210
2560,302,1211
2561,302,1211
2576,300,1212
2560,301,1210
2561,301,1211
2559,302,1211
2555,301,1202
2559,301,1212
2559,301,1213
2559,298,1241
2559,305,1211
2559,301,1214
2559,301,1214
2590,300,1212
2559,302,1212
2559,305,1213
2559,299,1212
2559,301,1216
2559,300,1212
2559,302,1213
2559,303,1214
2559,313,1214
2559,300,1214
2559,305,1214
2559,302,1213
2559,240,1216
2559,300,1214
2559,300,1214
2559,301,1213
2559,302,1215
2559,301,1216
2556,300,1192
2558,301,1208
2559,303,1215
2557,281,1216
2557,300,1216
2557,302,1216
2556,300,1203
2559,304,1216
2556,302,1216
2555,288,1217
2546,301,1216
2555,302,1216
2557,302,1217
2553,304,1217
2554,302,1218
2554,302,1214
2554,303,1217
2555,302,1218
2552,292,1219
2559,302,1218
2552,301,1216
2552,312,1216
2552,303,1219
2549,301,1219
2538,302,1217
2548,301,1219
2548,302,1219
2548,301,1220
2547,304,1221
2549,301,1220
2559,301,1220
2547,305,1221
2546,305,1221
2546,302,1219
2545,302,1221
2546,303,1221
2546,305,1224
2545,302,1221
2545,301,1221
2546,299,1221
2543,303,1221
2544,306,1222
2541,302,1223
2529,301,1225
2541,303,1222
2541,304,1224
2542,304,1224
2541,303,1223
2539,303,1221
2539,306,1217
2539,301,1226
2538,302,1228
2537,304,1225
2539,303,1221
2537,304,1232
2536,304,1225
2536,304,1219
2531,301,1228
2536,304,1225
2533,306,1225
2536,304,1224
2534,304,1226
2533,304,1225
2532,304,1228
2533,305,1225
2532,305,1224
2532,304,1225
2532,304,1225
2530,305,1228
2531,306,1226
2532,305,1227
2531,305,1227
2531,303,1220
2531,306,1228
2529,305,1226
2530,305,1224
2522,306,1226
2532,305,1226
2531,307,1227
2531,307,1227
2529,308,1226
2531,306,1227
2529,306,1227
2531,307,1228
2528,306,1282
2531,307,1229
2529,307,1230
2532,307,1227
2530,306,1229
2531,308,1229
2531,307,1230
2531,307,1232
2532,307,1229
2534,307,1228
2531,307,1231
2530,310,1231
2533,308,1230
2532,309,1230
2531,308,1231
2531,308,1232
2533,307,1227
2532,306,1230
2533,312,1229
2532,310,1232
2534,308,1232
2533,309,1233
2535,309,1231
2536,310,1232
2536,299,1233
2536,309,1230
2536,309,1233
2537,310,1233
2536,310,1231
2524,310,1233
2537,309,1234
2537,314,1234
2539,312,1246
2554,312,1233
2539,310,1235
2539,310,1235
2540,306,1226
2540,313,1234
2538,312,1235
2547,310,1237
2542,312,1236
2542,317,1235
2542,312,1235
2541,313,1212
2541,313,1236
2543,312,1242
2542,312,1236
2542,314,1236
2542,281,1528
