sensor_0,sensor_1,sensor_2
112,138,128
121,139,128
122,138,128
122,138,128
122,138,126
121,138,128
120,138,125
122,138,126
120,138,128
120,138,128
120,138,124
121,138,129
121,138,128
121,136,128
122,141,128
117,136,126
122,137,126
121,137,126
120,138,126
118,139,125
123,138,128
121,138,126
121,138,128
120,124,129
121,138,126
120,137,125
118,138,129
121,137,132
122,139,129
120,137,125
121,136,126
122,139,126
122,138,128
122,138,126
120,138,125
121,138,162
120,137,126
121,138,126
121,139,129
121,138,128
117,138,128
120,137,126
122,136,128
121,138,125
120,138,125
120,137,126
125,138,126
120,139,126
85,139,126
121,137,124
121,138,128
121,138,126
121,139,127
121,138,129
121,137,126
121,138,126
121,137,121
124,138,126
121,138,125
119,138,126
120,137,128
122,133,126
120,134,127
116,137,128
122,137,124
122,137,129
122,136,128
117,139,126
123,136,128
121,138,127
120,137,129
120,137,126
117,137,126
120,139,127
120,137,142
118,133,128
121,138,129
120,137,125
121,135,126
117,140,126
121,139,125
122,138,126
117,137,126
121,138,128
122,139,126
119,137,126
120,134,126
141,139,124
120,137,126
122,140,128
121,138,110
121,138,129
122,138,129
121,138,129
121,137,125
118,138,126
118,138,129
120,138,128
120,136,128
122,133,126
120,136,126
121,140,126
121,137,122
122,138,132
121,137,128
120,138,126
122,142,126
122,136,125
121,137,126
120,136,128
118,136,126
121,141,124
120,136,126
120,137,129
121,137,126
121,136,128
122,139,125
121,137,126
120,136,128
120,132,128
121,138,126
120,136,128
120,140,128
121,138,128
82,138,128
120,137,125
121,137,128
121,138,131
120,138,126
121,137,128
117,136,126
121,137,132
118,136,126
122,137,128
121,137,126
113,137,128
122,137,126
121,134,129
132,135,125
121,135,128
121,137,126
121,139,125
118,138,126
121,136,126
118,138,129
121,134,125
121,132,128
121,140,125
120,137,122
122,137,128
121,137,126
121,137,125
122,137,128
118,135,130
121,139,129
123,136,125
122,152,126
118,137,129
121,136,128
121,137,128
121,132,126
121,135,126
121,137,126
121,134,126
121,138,126
120,135,126
121,138,126
120,136,126
121,137,131
121,137,129
120,137,127
120,138,126
120,137,126
120,137,125
121,138,128
121,136,126
124,136,128
120,137,129
114,137,126
121,138,128
120,136,126
112,137,126
117,137,125
121,137,126
121,137,126
120,136,127
118,137,129
121,137,128
122,138,128
120,137,126
118,136,126
121,138,128
121,138,126
118,134,128
121,133,128
121,135,129
121,136,128
123,134,128
120,137,128
121,137,125
120,136,126
122,137,128
118,140,130
122,138,125
121,138,128
120,136,126
118,137,128
121,138,128
122,136,128
120,139,126
121,137,126
121,136,128
120,136,129
123,137,128
122,137,126
122,137,126
120,136,150
121,137,128
115,137,128
121,137,128
121,137,125
121,136,126
123,137,128
121,136,128
121,137,125
124,137,125
109,137,128
122,136,129
122,137,128
122,135,126
120,134,129
121,136,129
121,136,129
120,137,126
123,137,128
121,137,127
120,136,128
122,136,128
119,135,124
121,133,126
125,138,126
120,136,126
120,137,126
125,136,126
121,136,128
121,133,128
118,132,126
80,132,125
121,136,128
120,137,129
121,138,129
120,136,128
121,136,128
121,139,95
122,142,126
118,132,125
121,134,124
120,132,131
122,133,129
120,138,124
121,134,126
120,134,125
120,135,126
120,135,125
121,135,125
121,136,124
121,138,123
122,135,124
121,134,125
121,134,128
121,136,124
119,135,123
121,133,124
120,134,125
120,136,125
120,137,126
133,134,124
120,135,125
123,128,124
118,133,126
121,136,125
122,137,125
117,134,125
121,136,123
118,135,125
128,135,124
120,134,126
121,133,123
120,135,124
121,137,122
120,132,125
124,152,125
114,134,125
122,135,124
120,136,124
122,116,125
120,134,128
121,136,124
123,136,128
118,134,126
115,134,125
120,135,124
120,136,125
121,135,125
117,134,125
120,134,125
123,134,128
121,132,124
120,135,124
121,134,124
121,134,125
120,134,125
121,134,130
122,133,128
121,134,125
120,107,125
120,134,125
120,135,125
120,137,123
124,134,125
122,134,124
120,133,126
120,136,124
131,136,124
121,134,126
120,133,125
122,134,126
119,134,133
121,133,125
120,134,105
120,134,126
121,134,125
122,134,124
121,144,124
121,136,125
120,134,124
121,133,125
120,152,126
115,134,134
120,134,125
124,133,124
121,133,124
122,135,125
118,134,128
120,134,125
120,133,125
121,134,125
121,133,124
121,134,124
120,134,126
122,133,124
120,133,124
121,137,124
121,136,124
120,144,125
121,133,126
115,135,128
121,134,124
120,132,124
120,133,128
113,132,125
117,133,122
121,133,124
120,134,128
119,134,125
122,133,125
121,134,146
126,134,126
120,134,125
122,133,125
121,133,125
126,137,125
120,137,124
121,133,129
120,133,124
121,136,129
118,134,126
120,135,129
118,134,125
121,133,126
121,133,124
120,142,124
120,132,124
120,134,124
120,135,125
122,150,124
121,134,125
121,133,124
120,132,125
117,134,125
120,136,120
118,162,124
120,133,124
118,130,124
120,134,124
121,134,125
121,132,128
120,134,125
130,134,125
120,135,123
120,132,125
120,133,123
121,133,125
120,134,133
120,134,124
120,132,126
120,133,125
120,133,125
120,136,124
121,133,128
120,134,124
120,139,125
121,134,123
121,133,125
121,132,125
120,133,126
118,133,125
121,134,123
121,134,125
122,134,125
120,139,124
122,137,125
122,134,125
122,133,125
120,133,124
121,132,125
120,129,125
122,133,124
120,133,125
120,133,125
122,134,125
121,133,126
123,134,121
121,133,125
121,133,134
96,134,125
117,134,123
118,131,126
121,134,125
121,132,126
122,133,125
120,133,125
121,133,124
122,133,125
119,133,126
121,130,124
121,136,125
122,134,125
121,144,125
121,132,125
121,133,125
120,144,124
122,134,125
120,134,125
121,134,125
119,132,124
121,133,124
120,125,126
119,134,124
121,133,125
122,133,124
121,134,122
120,133,125
121,133,125
121,134,122
121,134,124
120,134,125
120,134,122
121,133,123
121,133,130
121,134,124
120,132,124
122,133,128
120,133,126
120,134,126
122,134,125
120,134,125
121,134,125
121,134,128
126,135,124
121,132,130
120,133,123
122,134,125
122,133,125
121,134,124
121,133,125
122,137,125
120,133,125
121,136,123
121,134,124
120,132,126
121,146,124
120,136,125
121,134,123
123,136,125
122,133,125
122,132,125
121,134,124
118,133,122
122,137,124
117,133,125
114,133,126
121,134,125
123,133,126
122,133,126
110,136,130
120,137,125
121,137,122
122,134,125
120,154,121
121,152,118
123,149,121
121,150,121
121,151,121
118,151,120
121,153,120
113,152,121
122,152,120
120,156,120
121,152,120
123,152,120
121,150,120
120,152,120
120,151,121
121,153,120
120,152,121
121,150,122
121,152,116
121,151,121
120,151,120
120,152,118
121,152,117
121,151,120
122,152,120
121,152,120
119,152,117
122,152,120
121,152,118
121,150,122
121,150,117
122,151,122
121,152,120
120,149,118
122,151,121
120,150,120
122,149,118
122,153,120
104,136,120
121,150,120
121,151,120
123,149,121
109,150,120
122,146,120
120,153,120
121,151,118
120,150,120
122,149,120
121,149,110
122,150,120
117,150,118
122,152,118
122,150,122
123,150,121
121,151,120
121,154,121
119,151,120
122,150,121
121,148,121
122,150,120
121,150,121
122,150,120
122,152,120
121,152,121
116,151,121
123,152,138
122,150,119
121,149,120
121,150,118
122,151,120
122,149,121
117,150,120
121,149,123
121,152,120
121,148,118
120,150,120
122,149,121
121,152,120
122,153,122
120,152,120
123,150,118
120,150,121
121,150,121
121,150,120
123,151,116
120,150,120
122,150,120
121,150,120
121,152,121
120,153,120
126,152,121
122,148,121
122,149,121
123,150,132
124,150,120
121,152,122
120,149,120
121,150,120
120,150,121
121,149,121
117,153,118
123,150,120
122,150,129
121,154,120
122,150,121
121,149,121
121,150,120
130,149,120
120,152,119
126,149,119
122,149,119
121,150,121
118,150,120
124,149,120
122,152,121
121,150,121
121,148,119
122,151,120
121,125,121
117,150,120
120,150,120
122,150,121
122,150,120
122,149,118
122,149,121
121,150,120
121,150,121
120,154,120
121,148,121
121,150,121
120,151,116
115,150,115
121,150,121
120,149,121
118,150,121
120,149,116
122,149,120
121,148,120
122,152,122
121,152,117
128,150,118
121,150,120
110,149,118
122,147,120
121,150,121
120,149,123
123,149,121
120,150,120
123,150,118
118,149,120
122,149,120
118,148,121
122,150,120
121,150,120
123,148,123
120,149,121
121,110,121
123,149,121
122,148,122
120,152,121
121,149,122
121,149,122
121,150,120
122,152,121
120,149,107
121,148,122
121,149,121
122,150,118
122,151,122
121,148,121
121,149,120
123,149,122
122,149,120
122,149,120
121,150,121
121,149,118
122,150,122
121,150,123
118,149,120
121,149,120
126,147,117
121,149,121
122,149,119
122,147,117
121,149,120
120,150,120
122,148,121
133,148,120
121,152,116
121,147,120
121,148,118
121,147,121
121,150,121
118,148,122
122,150,120
118,149,118
118,150,122
120,149,120
121,150,121
119,149,121
121,151,125
120,150,120
121,149,121
124,149,121
121,146,121
122,148,123
121,149,122
121,150,120
121,148,118
120,149,119
121,153,120
122,149,120
121,148,120
121,149,120
121,150,120
123,149,120
121,151,114
121,148,122
118,146,120
121,149,120
121,150,118
122,149,121
118,148,120
121,149,120
116,149,118
124,150,118
121,150,120
120,149,121
121,148,120
120,148,120
121,148,121
122,153,124
121,150,119
121,146,120
121,148,121
121,149,122
124,149,120
122,148,120
121,148,121
122,145,115
121,148,121
121,151,121
121,149,120
120,144,120
117,149,120
121,148,122
118,149,118
121,146,122
121,150,122
120,149,120
121,148,117
128,149,121
121,148,120
121,149,121
121,148,122
122,147,106
120,172,118
120,177,118
120,173,128
121,174,121
120,172,119
118,172,120
122,172,115
122,173,117
118,173,118
122,173,118
121,178,123
120,173,120
121,173,117
121,173,118
121,170,120
122,173,118
121,173,118
120,173,116
121,177,118
120,173,118
121,174,120
122,173,119
123,172,120
119,174,116
120,173,118
120,173,121
120,176,119
117,169,117
121,173,118
121,173,118
121,173,118
118,169,115
120,174,117
120,176,119
121,174,118
108,173,120
121,173,120
121,173,120
120,201,119
122,171,125
120,174,124
120,173,118
120,173,120
116,173,118
122,172,119
121,172,120
123,172,120
120,173,117
121,173,121
120,172,118
121,174,86
122,169,120
121,171,120
121,172,115
120,173,118
120,173,120
118,172,120
120,173,119
121,173,118
121,173,119
121,173,118
121,172,118
124,172,118
121,173,121
121,172,118
119,172,120
120,172,118
121,172,123
121,170,120
122,173,116
121,171,118
120,174,117
120,172,118
122,173,111
115,173,118
120,172,118
121,172,118
119,170,120
121,172,118
121,171,120
102,173,118
117,171,120
121,173,120
120,173,118
121,172,120
120,173,118
121,173,118
121,172,123
120,172,121
120,172,117
120,172,120
121,172,118
121,172,118
121,172,119
120,173,118
122,172,118
121,172,119
121,171,121
121,174,118
121,172,118
122,172,118
121,172,118
121,172,121
121,172,120
120,172,117
122,173,118
120,175,118
120,172,117
118,174,118
122,172,118
120,174,118
120,173,118
121,174,118
122,172,118
120,173,120
122,173,118
118,170,121
121,172,119
121,171,117
118,174,118
121,173,117
118,173,117
121,172,118
121,170,115
121,174,118
121,173,114
122,173,116
121,173,118
121,172,117
121,170,118
121,172,118
121,172,119
118,182,117
120,161,121
118,173,115
120,173,123
120,173,118
120,173,118
121,170,116
121,173,118
120,172,118
120,176,120
117,172,118
118,173,118
120,173,117
121,173,121
117,172,119
121,172,130
121,172,119
120,172,120
122,172,118
120,172,120
120,175,118
123,173,121
121,173,121
121,173,121
120,174,118
123,171,118
122,172,116
120,173,118
121,173,120
121,173,120
122,172,120
118,174,118
119,172,118
120,173,118
121,173,118
120,172,117
122,172,118
121,180,118
120,170,118
122,170,122
117,173,120
120,172,120
117,172,118
118,172,123
123,172,117
121,174,121
121,172,120
121,173,118
121,170,117
116,173,108
121,173,120
122,173,117
118,172,105
121,172,119
123,173,118
122,170,120
118,170,117
121,172,118
120,178,118
120,172,118
120,166,117
125,172,120
120,172,119
122,172,119
121,175,120
120,172,118
121,170,118
124,173,118
118,173,119
121,171,118
122,171,118
123,172,122
122,172,117
121,171,118
121,171,116
121,175,121
121,173,120
123,170,119
120,164,129
118,169,120
120,172,118
118,171,118
122,171,118
120,170,118
120,172,118
122,172,118
121,171,120
118,173,107
120,171,118
113,174,118
121,172,118
120,171,118
122,173,118
120,171,117
121,172,119
121,171,118
123,173,139
121,169,118
121,171,117
120,170,119
118,166,105
121,171,117
125,178,118
122,165,117
121,171,118
120,172,117
118,172,118
118,172,118
121,170,119
120,172,118
121,171,118
123,170,118
122,176,118
120,171,118
120,178,118
121,171,126
121,172,118
121,172,118
129,172,118
125,171,121
120,172,119
119,172,118
123,170,115
121,152,109
121,150,109
121,150,109
117,152,109
121,149,110
121,147,111
121,150,108
120,152,108
121,152,110
121,152,109
126,152,109
119,152,110
128,148,110
118,152,109
122,152,109
122,150,113
121,152,109
121,152,109
126,150,108
121,149,108
122,150,108
121,149,109
121,150,108
121,170,108
120,147,109
123,148,108
120,150,108
122,150,108
121,151,105
121,148,109
118,152,108
121,149,108
123,151,112
121,152,108
121,153,111
119,150,109
121,150,109
120,152,108
121,153,108
121,140,108
110,150,108
122,158,108
121,153,109
122,151,109
120,150,109
121,152,109
121,150,107
120,151,109
120,151,110
121,150,109
119,152,110
120,151,110
121,153,110
121,149,108
121,152,110
122,136,109
122,151,109
123,149,100
126,150,110
122,151,109
128,150,109
122,150,96
121,152,109
118,151,112
120,152,109
121,154,110
122,149,109
120,157,108
116,152,112
121,141,108
121,148,111
120,150,109
120,153,110
121,153,110
120,150,112
101,150,110
121,150,102
121,151,108
120,151,109
126,150,109
121,151,106
121,152,108
120,150,110
121,151,107
122,150,108
120,151,109
121,153,108
122,150,109
90,152,109
121,152,106
120,151,106
122,150,109
121,162,109
121,149,109
118,152,108
121,153,108
121,152,108
128,150,109
120,150,110
120,153,109
121,152,108
121,150,108
121,152,108
121,148,107
122,150,124
123,150,90
123,152,108
120,152,108
118,152,108
115,154,94
121,153,109
121,151,109
121,152,108
117,153,110
120,150,110
122,152,139
121,153,112
121,152,108
120,152,105
117,150,109
121,145,116
123,152,108
121,150,110
104,152,109
120,152,109
107,152,109
121,152,109
125,152,109
122,148,112
117,154,108
121,152,109
120,170,107
121,149,110
121,152,111
118,153,108
121,152,112
121,152,109
121,153,109
120,152,109
118,153,109
123,156,111
118,152,110
118,152,108
122,150,112
118,153,110
121,153,108
121,150,109
121,152,110
119,152,109
122,146,109
121,150,109
121,150,109
120,152,109
121,150,110
121,153,108
121,154,109
121,152,109
121,151,109
121,152,109
122,152,107
122,150,108
122,152,108
122,152,109
83,152,110
121,149,110
129,149,110
121,152,110
120,152,108
121,154,107
118,153,106
123,152,110
123,151,109
121,151,109
121,152,109
122,147,109
120,153,110
120,150,110
117,154,109
121,153,109
121,153,108
120,150,109
120,155,111
120,150,109
121,152,108
122,152,108
121,152,109
122,149,109
121,153,109
121,150,109
120,151,106
122,153,109
122,150,110
115,152,109
121,149,108
121,150,108
120,150,110
121,153,108
120,152,109
118,150,109
120,151,109
121,152,93
120,145,110
121,151,109
122,150,109
121,154,108
121,152,109
122,153,109
121,150,109
121,152,112
121,150,110
121,150,110
113,151,108
121,151,112
124,152,106
122,152,110
120,152,109
120,152,107
118,149,109
120,150,107
121,151,109
123,150,109
121,150,109
121,150,113
121,152,109
121,153,114
121,146,107
121,150,110
120,149,109
121,150,110
121,153,109
120,149,109
121,152,111
121,151,108
121,152,107
114,153,109
122,150,109
121,152,109
122,152,109
120,151,109
120,151,110
120,150,109
121,157,110
118,151,109
120,150,108
124,150,108
120,152,110
120,150,112
120,149,109
103,150,109
122,150,109
119,154,109
121,153,109
120,152,109
122,150,108
121,148,171
121,141,184
117,142,186
121,140,185
121,142,182
117,157,185
120,142,185
124,141,186
120,142,184
125,142,185
120,141,184
121,140,184
121,141,185
117,141,184
114,140,184
118,142,181
122,145,186
121,141,185
121,141,185
120,142,186
121,146,185
121,142,179
121,140,185
121,141,184
120,141,185
122,142,185
121,144,184
120,141,185
121,141,185
120,141,185
120,140,185
121,140,185
118,136,184
122,141,185
120,139,185
122,141,185
120,141,185
120,141,178
122,141,181
123,141,184
122,142,182
120,139,186
120,140,185
121,141,184
121,142,187
118,141,188
119,141,185
121,143,182
122,142,185
120,141,185
122,141,185
90,140,184
120,141,181
122,153,185
122,140,184
121,140,184
120,141,185
120,146,185
121,140,186
120,141,184
122,141,186
121,140,185
121,140,184
121,140,183
120,139,187
121,142,181
123,140,187
118,140,185
121,141,184
121,139,188
118,146,185
121,140,187
120,148,187
121,144,185
122,140,184
119,141,184
121,144,182
118,141,186
119,141,184
120,140,189
118,141,184
122,139,184
122,142,184
121,140,183
121,138,185
121,141,185
121,141,185
120,142,185
124,141,184
121,139,185
118,141,185
121,138,185
120,148,186
121,141,186
117,137,184
120,146,184
120,141,186
121,140,182
137,139,185
118,140,185
122,140,189
120,141,184
120,140,188
128,140,184
120,140,184
120,140,188
122,140,188
124,141,185
120,140,186
121,140,185
118,133,184
120,140,184
121,140,198
120,140,185
121,140,185
120,140,185
120,140,185
122,140,185
120,141,185
120,139,184
120,138,185
121,142,185
122,142,154
121,141,184
121,141,184
121,140,184
123,137,185
121,139,187
121,141,186
121,141,185
120,139,185
120,140,184
122,140,185
121,140,186
120,140,187
116,140,181
121,140,187
120,140,186
121,141,185
120,138,185
120,139,185
120,142,186
122,139,185
120,140,184
117,131,185
122,141,182
121,141,186
115,141,185
121,146,187
120,139,185
120,142,184
121,141,184
122,140,184
121,140,183
120,140,187
120,141,183
120,139,189
123,140,185
120,138,184
120,141,185
121,139,159
120,137,185
122,137,184
120,140,184
122,145,184
120,140,182
121,139,185
120,140,185
122,140,184
118,140,184
120,140,185
119,139,185
121,140,186
122,139,184
124,140,184
121,140,184
120,149,185
119,140,180
120,140,185
120,142,182
123,140,184
123,140,185
121,139,185
118,139,185
122,139,185
120,128,184
122,140,184
120,139,185
120,139,184
121,139,186
115,141,185
121,138,185
122,141,185
120,139,182
121,139,185
121,139,185
120,144,185
121,140,184
119,139,184
121,139,188
121,138,185
121,140,186
91,140,185
120,141,187
120,137,186
121,139,182
120,139,185
118,142,185
122,135,186
120,140,185
125,138,186
118,143,185
121,145,185
121,145,185
121,138,184
118,140,185
125,140,185
120,133,185
120,140,185
120,140,185
118,140,182
120,138,182
120,141,185
121,139,189
121,164,185
121,138,185
121,139,184
121,136,185
120,141,187
122,139,186
120,142,188
120,156,185
121,141,185
120,144,185
121,140,186
120,140,186
120,140,180
120,140,185
120,139,186
121,141,185
118,141,186
121,139,185
121,139,185
121,139,185
121,141,186
124,141,184
123,142,185
119,140,185
121,138,184
120,139,185
120,138,186
120,139,182
120,140,185
120,140,185
119,139,186
121,137,173
118,154,163
124,142,164
120,142,163
120,141,163
121,141,163
121,145,164
120,142,164
121,141,161
121,142,166
121,142,164
121,142,163
120,145,163
121,141,164
120,141,162
121,142,164
118,139,164
122,141,163
120,142,163
121,141,161
120,145,163
122,141,163
122,141,163
121,141,163
89,141,164
123,140,163
121,201,168
120,141,164
124,141,163
118,143,162
121,141,163
126,142,163
121,140,164
118,138,172
121,140,163
126,147,164
121,142,164
120,138,163
120,141,166
122,144,162
122,139,165
120,139,163
122,141,164
121,142,163
120,141,164
121,140,164
106,144,160
121,141,165
120,142,163
120,141,162
121,143,163
120,142,163
120,141,165
121,146,163
121,141,164
120,144,163
122,142,162
120,144,164
121,144,164
121,142,162
120,140,164
120,142,163
123,144,161
118,160,162
121,141,166
120,141,163
121,141,162
122,140,164
120,141,164
121,141,168
118,141,163
103,141,163
121,144,163
121,140,161
121,137,163
120,141,177
121,142,165
120,141,164
120,141,165
120,142,164
120,141,161
121,141,165
121,142,163
120,140,164
121,144,164
120,140,163
121,142,164
120,144,165
121,144,163
118,144,161
126,141,163
120,140,178
122,101,164
120,141,163
121,141,165
121,137,161
120,141,163
121,146,165
120,141,168
120,147,164
120,141,164
122,141,162
121,141,164
120,141,163
121,141,138
120,141,163
123,141,165
118,141,165
167,140,163
121,140,164
120,138,164
121,140,165
120,142,165
116,142,180
121,140,164
121,142,163
121,142,165
121,143,164
122,142,164
120,140,163
120,140,165
121,141,161
122,140,164
120,142,164
122,141,162
120,141,164
120,140,164
121,140,164
121,142,163
121,138,163
123,145,164
122,141,163
118,140,164
120,141,163
119,142,163
121,143,165
125,140,163
119,141,164
114,138,165
120,140,164
121,141,164
120,139,184
120,139,161
120,140,164
122,141,163
120,141,165
120,142,165
121,142,164
121,141,164
121,140,163
121,141,163
121,141,161
121,139,163
121,140,164
122,140,163
121,141,162
121,141,164
121,142,164
121,141,164
118,134,162
121,141,163
120,140,163
120,139,163
121,141,164
121,141,164
120,141,163
120,142,164
121,141,163
121,137,163
121,142,164
121,140,161
121,142,164
118,137,163
121,142,165
120,140,163
122,142,163
120,139,163
122,140,164
121,134,165
121,141,163
120,139,163
121,139,163
117,139,163
120,140,163
126,140,163
120,141,163
114,144,164
121,140,164
122,141,164
120,140,163
122,139,164
120,140,163
119,141,144
107,144,163
121,140,162
121,139,163
121,141,162
118,139,164
120,140,147
122,140,163
121,142,162
121,141,164
119,140,163
121,139,162
122,124,163
120,140,164
122,139,164
120,139,162
120,140,163
121,144,163
120,139,163
121,140,162
121,140,164
124,139,163
120,154,164
123,139,164
120,141,164
120,141,164
121,140,163
120,145,166
122,139,163
120,140,164
118,139,162
121,140,163
122,140,164
122,139,163
115,141,164
121,140,163
121,139,163
123,143,165
121,139,163
122,140,164
121,140,163
121,140,162
121,140,164
122,141,162
120,140,163
121,140,162
120,139,164
120,141,163
121,140,150
122,141,161
122,141,162
122,144,164
121,140,165
121,143,164
120,141,164
120,140,163
119,141,164
120,139,163
121,140,163
118,140,164
121,141,156
120,141,163
121,138,163
121,139,139
121,134,140
118,134,138
122,132,140
122,136,138
121,134,137
121,132,137
121,134,138
120,138,137
120,133,138
105,134,138
122,137,137
123,133,137
121,136,138
121,135,138
121,133,139
121,134,139
117,134,139
121,133,138
121,134,138
121,134,137
121,134,137
120,133,138
122,134,136
121,134,138
124,136,138
121,134,138
121,132,137
118,134,142
120,134,138
120,134,136
122,130,139
122,136,138
121,135,137
120,132,152
120,138,138
121,122,138
123,135,139
120,132,140
120,136,137
118,138,138
120,133,138
121,140,137
120,137,139
122,134,138
120,134,137
122,131,140
125,134,139
120,134,137
122,134,138
120,131,139
122,135,138
121,134,138
120,135,136
123,134,138
120,133,138
121,134,139
121,136,137
119,134,137
117,133,138
121,134,137
118,131,137
122,134,137
115,135,138
120,136,142
121,134,138
121,136,138
120,134,140
123,133,140
118,134,139
120,138,138
121,136,138
123,137,136
120,134,140
121,136,141
120,132,139
120,134,137
120,134,139
121,134,138
119,134,138
121,139,138
121,134,138
121,137,139
120,120,138
121,139,140
120,134,137
137,133,138
120,133,138
109,134,137
121,134,138
116,136,138
120,133,138
123,136,138
120,135,139
118,134,139
107,135,138
118,134,137
124,134,141
120,135,139
120,134,138
121,134,139
121,134,137
123,133,138
121,136,138
121,134,142
119,133,140
121,136,138
120,133,137
121,135,139
120,133,138
120,133,139
117,136,136
122,134,138
120,134,140
120,135,138
121,134,139
120,136,140
118,134,139
120,134,135
120,132,139
119,91,138
120,137,138
120,134,141
134,132,138
121,133,139
121,133,138
121,132,138
120,134,138
119,133,140
120,134,138
122,121,138
122,152,138
121,133,138
121,137,137
120,137,138
120,134,138
138,133,138
120,134,136
121,134,137
121,132,137
121,139,139
122,133,137
121,134,138
120,134,139
120,133,137
123,130,137
121,133,137
121,134,142
120,134,138
121,131,139
121,132,138
121,134,138
84,133,156
121,134,137
121,134,138
121,134,139
121,133,138
119,132,138
122,132,144
119,134,138
121,133,138
120,134,137
123,131,137
118,136,138
120,135,138
121,136,137
120,134,149
121,134,138
121,114,141
121,133,137
116,133,137
123,133,139
120,133,138
120,134,138
121,136,138
120,134,137
118,133,138
122,132,138
123,118,138
120,134,139
122,134,153
129,136,138
121,134,138
122,134,138
136,132,139
121,136,135
121,134,138
122,134,137
118,134,138
109,134,139
120,134,143
120,133,138
121,135,136
120,129,138
121,133,139
120,136,139
121,135,138
120,135,138
131,133,138
125,134,136
120,135,138
124,135,138
120,136,137
122,134,139
121,133,137
121,133,139
120,99,139
123,134,138
121,133,132
116,133,137
121,130,136
120,133,138
121,133,128
121,132,138
120,134,136
119,137,138
121,133,138
120,133,140
123,132,144
121,133,138
123,137,138
122,134,139
121,132,138
121,136,138
122,133,140
121,134,138
122,134,138
122,130,136
123,134,137
119,133,133
121,134,138
120,134,136
118,134,137
122,134,139
120,134,138
117,137,114
120,134,138
120,134,137
120,133,137
121,134,132
120,133,138
120,134,138
123,133,138
116,142,138
120,134,138
121,133,138
128,133,139
121,132,137
122,133,138
122,133,138
122,136,140
121,134,138
121,136,138
121,133,138
120,133,139
123,147,131
