sensor_0,sensor_1,sensor_2
1508,2547,458
1507,2548,458
1506,2549,459
1506,2546,461
1513,2548,465
1505,2545,458
1507,2547,457
1504,2542,458
1505,2547,457
1505,2543,458
1505,2542,475
1504,2544,457
1507,2542,458
1504,2541,457
1502,2538,458
1503,2540,457
1503,2540,458
1503,2540,457
1501,2539,460
1504,2541,450
1502,2540,457
1503,2538,457
1501,2538,457
1501,2537,457
1502,2537,458
1501,2536,457
1501,2536,458
1501,2534,457
1510,2536,454
1500,2533,457
1499,2533,457
1498,2532,452
1499,2531,457
1503,2532,458
1496,2530,457
1504,2530,457
1497,2530,458
1493,2530,457
1498,2529,456
1512,2529,457
1496,2529,458
1497,2526,456
1497,2526,456
1485,2524,457
1499,2526,457
1496,2526,456
1496,2527,457
1494,2526,459
1496,2524,454
1494,2525,456
1494,2524,457
1496,2523,457
1497,2524,454
1493,2523,456
1493,2524,458
1493,2522,457
1492,2485,457
1493,2522,457
1493,2520,458
1492,2521,457
1496,2520,457
1492,2518,457
1492,2520,457
1494,2522,167
1492,2518,457
1490,2526,457
1490,2516,458
1491,2517,462
1491,2517,456
1491,2517,456
1490,2517,458
1489,2516,457
1491,2512,457
1490,2514,457
1490,2515,456
1488,2514,459
1489,2514,459
1489,2513,457
1488,2513,461
1481,2516,457
1488,2510,458
1482,2513,458
1510,2511,457
1485,2510,458
1486,2508,457
1484,2508,458
1477,2508,458
1485,2509,457
1484,2506,457
1483,2506,458
1451,2507,457
1482,2505,458
1484,2507,458
1483,2507,456
1483,2473,458
1483,2504,459
1483,2502,459
1482,2504,458
1481,2504,458
1481,2500,458
1482,2500,458
1483,2493,458
1481,2502,458
1480,2507,457
1478,2499,464
1478,2485,457
1480,2494,459
1479,2499,457
1478,2498,458
1479,2499,453
1490,2500,458
1477,2497,459
1479,2498,458
1477,2496,494
1477,2496,458
1477,2496,458
1477,2494,457
1476,2494,459
1476,2494,459
1514,2492,458
1476,2476,459
1474,2493,459
1475,2496,458
1476,2493,458
1475,2487,458
1473,2491,459
1473,2491,458
1467,2491,457
1478,2491,458
1473,2386,461
1473,2491,458
1473,2491,457
1471,2491,464
1472,2491,459
1475,2489,458
1472,2475,522
1473,2488,459
1472,2488,459
1471,2488,458
1472,2489,460
1473,2487,458
1470,2488,458
1472,2489,464
1470,2486,458
1473,2485,459
1470,2486,459
1467,2486,460
1469,2485,459
1468,2487,460
1468,2485,459
1468,2485,458
1477,2485,418
1464,2485,457
1468,2484,458
1467,2483,458
1467,2483,458
1467,2483,459
1467,2481,460
1476,2480,458
1467,2481,459
1463,2481,458
1465,2481,459
1465,2480,458
1466,2481,458
1464,2480,459
1466,2480,458
1462,2477,288
1450,2478,460
1462,2480,457
1460,2478,459
1464,2477,458
1459,2476,458
1461,2475,459
1461,2475,459
1460,2475,458
1461,2475,459
1462,2462,460
1460,2473,458
1459,2474,458
1461,2490,466
1459,2474,460
1459,2473,459
1459,2472,461
1458,2470,460
1459,2471,458
1456,2472,458
1461,2472,458
1456,2472,459
1459,2482,446
1458,2470,458
1459,2472,459
1457,2470,458
1460,2469,458
1457,2469,458
1457,2468,461
1457,2469,459
1457,2468,459
1456,2468,456
1452,2468,458
1458,2468,456
1456,2468,459
1459,2467,458
1440,2467,459
1452,2466,459
1418,2466,458
1457,2466,458
1457,2465,459
1457,2467,458
1458,2465,453
1457,2466,459
1456,2465,458
1456,2465,458
1454,2462,458
1457,2472,457
1458,2464,459
1456,2464,459
1458,2477,458
1454,2464,458
1456,2464,459
1457,2463,459
1457,2464,458
1452,2462,459
1457,2462,459
1458,2462,458
1458,2464,458
1380,2461,459
1458,2462,459
1458,2461,459
1457,2461,457
1457,2461,460
1459,2465,462
1457,2460,458
1458,2458,461
1420,2460,460
1458,2460,458
1457,2451,458
1457,2458,460
1457,2458,459
1458,2456,459
1456,2457,457
1456,2457,458
1457,2456,460
1444,2457,459
1458,2457,458
1458,2457,458
1458,2457,462
1456,2454,466
1457,2454,459
1457,2454,459
1458,2455,457
1459,2456,458
1461,2456,459
1458,2453,459
1458,2451,458
1459,2945,742
1218,2145,691
1220,2145,692
1220,2145,697
1218,2145,699
1220,2145,692
1220,2144,692
1218,2144,692
1218,2143,692
1218,2144,691
1218,2143,692
1216,2142,692
1217,2142,691
1218,2141,691
1219,2143,692
1214,2141,691
1217,2141,691
1217,2141,691
1217,2141,690
1219,2141,691
1216,2140,686
1202,2141,691
1216,2140,694
1213,2141,692
1216,2140,693
1214,2139,690
1214,2138,690
1213,2138,690
1214,2139,691
1213,2138,693
1214,2138,691
1214,2137,691
1213,2136,673
1213,2121,691
1219,2150,691
1213,2136,692
1212,2134,690
1212,2135,691
1208,2136,691
1212,2136,691
1213,2135,692
1213,2137,687
1212,2133,692
1213,2134,694
1212,2133,691
1211,2133,691
1216,2133,692
1212,2132,696
1284,2132,692
1211,2131,690
1210,2131,691
1210,2131,693
1210,2131,696
1211,2131,693
1212,2129,693
1210,2125,693
1210,2130,694
1210,2132,694
1211,2129,696
1211,2129,694
1210,2128,696
1208,2130,696
1211,2155,695
1213,2126,696
1210,2125,695
1208,2125,696
1207,2125,696
1209,2124,696
1206,2124,689
1208,2124,706
1206,2122,698
1208,2123,697
1208,2123,700
1208,2117,698
1208,2124,698
1208,2121,697
1207,2122,699
1206,2121,698
1185,2121,698
1205,2120,699
1205,2117,700
1211,2118,699
1207,2117,698
1206,2117,699
1205,2115,699
1204,2116,699
1204,2116,699
1193,2145,698
1205,2118,699
1205,2116,697
1205,2115,699
1204,2115,700
1209,2124,699
1204,2115,700
1203,2114,700
1203,2110,705
1205,2113,700
1203,2112,700
1201,2112,699
1203,2114,701
1219,2110,701
1204,2112,702
1203,2109,700
1204,2110,701
1200,2109,701
1204,2110,701
1203,2110,702
1203,2110,701
1203,2106,702
1176,2108,702
1203,2107,702
1202,2108,702
1201,2106,704
1202,2108,704
1202,2105,704
1204,2106,700
1203,2104,700
1202,2106,703
1204,2105,702
1202,1996,702
1200,2104,708
1200,2104,703
1202,2102,703
1201,2103,703
1200,2104,704
1203,2105,703
1202,2102,704
1202,2101,704
1203,2104,703
1202,2102,704
1202,2100,703
1201,2100,707
1202,2100,704
1202,2100,705
1202,2100,704
1197,2100,702
1202,2096,704
1202,2096,704
1206,2098,704
1201,2096,704
1199,2096,705
1200,2094,705
1202,2098,705
1201,2097,704
1203,2094,707
1200,2093,709
1201,2093,706
1200,2110,704
1200,2094,704
1198,2090,705
1198,2092,705
1197,2090,706
1199,2091,706
1198,2108,716
1198,2090,705
1197,2090,642
1197,2090,703
1184,2089,706
1197,2087,707
1198,2089,705
1198,2091,706
1197,2088,707
1198,2088,705
1197,2088,703
1198,2083,700
1196,2088,706
1196,2088,706
1196,2086,706
1198,2084,705
1204,2084,705
1196,2084,707
1197,2085,706
1171,2084,706
1195,2082,705
1196,2083,705
1193,2082,706
1195,2082,705
1194,2082,707
1195,2082,707
1195,2085,691
1194,2081,706
1190,2081,702
1193,2081,706
1195,2081,704
1194,2080,707
1193,2080,707
1195,2082,710
1195,2080,706
1194,2080,706
1196,2083,705
1193,2078,707
1193,2078,707
1194,2077,706
1195,2076,707
1195,2078,707
1193,2077,706
1193,2077,707
1204,2075,707
1194,2077,707
1195,2076,706
1195,2074,708
1194,2076,701
1195,2075,708
1193,2074,706
1194,2074,700
1193,2075,706
1189,2075,706
1195,2075,601
1195,2075,707
1195,2073,706
1192,2073,707
1192,2073,706
1193,2072,705
1192,2073,707
1193,2075,707
1192,2072,708
1190,2070,707
1192,2071,706
1192,2069,707
1193,2070,707
1192,2068,707
1192,2068,706
1189,2067,706
1189,2066,708
1192,2067,706
1192,2067,707
1190,2066,707
1190,2066,705
1194,2064,706
1184,2064,715
1190,2065,706
1182,2064,705
1191,2065,705
1190,2064,706
1190,2064,705
1190,2059,704
1188,2062,705
1188,2061,705
1188,2064,704
1188,2061,705
1187,2060,705
1190,2060,704
1189,2061,705
1189,2059,704
1189,2060,704
1187,2060,704
1189,2060,704
1186,2060,704
1186,2060,706
1187,2059,703
1187,2090,700
1189,2059,702
1188,2058,702
1188,2057,703
1188,2057,704
1189,2323,625
891,2029,602
890,2021,602
893,2030,603
890,2027,603
892,2030,602
890,2032,601
891,2030,602
891,2029,579
890,2033,602
891,2032,602
888,2031,603
891,2030,602
891,2030,601
891,2030,603
890,2029,602
890,2030,603
892,2030,598
905,2029,602
889,2032,601
890,2029,511
889,2031,603
888,2036,608
891,2030,602
888,2034,601
890,2031,603
889,2025,604
893,2033,602
888,2032,602
889,2032,601
890,1957,603
888,2032,602
888,2032,602
888,2032,602
885,2032,601
888,2032,602
885,2032,602
888,2031,601
888,2032,602
888,2034,602
887,2033,603
886,2031,603
886,2030,604
888,2029,601
886,2032,601
887,2033,601
885,2032,602
889,2031,601
885,2032,599
888,2033,603
886,2032,602
872,2032,602
885,2032,601
885,2031,602
885,2030,603
886,2030,600
873,2030,602
884,2031,601
883,2030,601
883,2032,600
883,2030,601
885,2030,601
883,2033,601
883,2030,601
884,2032,600
882,2029,601
884,2031,596
883,2030,600
904,2034,602
883,2030,596
884,2035,597
885,2030,600
881,2029,600
882,2030,600
882,2029,523
882,2030,600
878,2030,600
882,2028,601
883,2031,599
882,2031,601
881,2030,600
881,2030,600
891,2029,597
881,2030,587
880,2032,608
880,2035,599
879,2033,598
881,2034,598
880,2029,598
881,2028,598
878,2029,598
882,2025,598
878,2029,600
889,2030,611
877,2030,598
880,2028,598
877,2033,600
880,2029,598
877,2029,598
854,2029,600
877,2030,599
878,2027,596
880,2031,597
880,2029,598
875,2029,598
875,2032,597
878,2030,596
880,2029,598
880,2035,597
877,2030,598
878,2033,597
880,2030,585
877,2032,598
878,2030,598
879,2029,597
876,2030,597
878,2032,597
877,2030,596
877,2033,595
877,2031,596
876,2030,592
878,2029,597
877,2031,597
876,2032,596
877,2030,596
877,2015,597
877,2030,595
874,2030,595
875,2031,596
876,2031,577
875,2029,602
876,2029,596
875,1993,596
878,2012,594
875,2030,596
876,2026,595
876,2030,595
871,2043,596
877,2030,594
875,2030,596
877,2027,596
891,2029,592
876,2029,594
877,2027,597
875,2029,596
874,2028,596
876,2028,595
876,2029,585
876,2028,593
878,2028,597
892,2029,596
876,2028,594
875,2026,595
875,2033,594
877,2028,594
877,2029,593
876,2027,593
876,2032,594
874,2028,594
875,2027,579
884,2027,594
877,2027,593
877,2029,594
875,2028,594
874,2026,594
880,2026,594
877,2028,593
878,2028,594
877,2038,580
877,2030,594
877,2028,593
877,2028,593
876,2026,595
877,2028,592
878,2027,594
877,2028,593
876,2027,591
879,2028,594
894,2028,594
880,2026,593
878,2028,593
877,2012,593
879,2027,594
880,2025,593
971,2027,593
882,2044,581
878,2027,594
877,2028,592
880,2026,593
880,2027,611
921,2027,593
881,2027,594
881,2027,592
878,2027,593
883,2024,593
881,2027,594
882,2027,594
882,2028,593
883,2030,593
883,2026,592
882,2022,593
883,2025,593
882,2025,594
882,2026,592
884,2024,593
882,2025,643
882,2022,594
884,2024,593
884,2024,589
885,2024,593
878,2025,592
884,2022,593
883,2024,592
884,2023,593
875,2024,594
885,2024,606
874,2022,598
886,2021,594
886,2022,593
887,2022,593
888,2022,594
890,2023,594
888,2022,593
891,2022,595
888,2021,592
888,2021,565
889,2022,595
889,2021,593
889,2025,594
888,2020,595
888,2019,593
890,2018,592
891,2020,589
889,2020,592
893,2020,593
892,2018,593
891,2019,593
891,2017,593
887,2018,592
893,2018,594
891,2018,595
880,2018,593
892,2019,592
893,2018,594
894,2018,595
894,2017,594
893,2018,592
893,2016,592
896,2016,597
896,2018,595
894,2016,605
894,2018,593
896,2017,594
897,2015,608
897,2013,596
896,1797,498
512,1274,431
513,1274,432
512,1273,432
573,1275,429
513,1274,430
512,1268,432
511,1270,431
513,1271,429
511,1272,431
511,1266,427
511,1273,432
514,1274,432
522,1272,429
511,1271,448
511,1272,430
511,1286,431
511,1271,429
511,1269,409
511,1272,431
511,1269,430
514,1270,430
511,1271,429
511,1270,439
513,1270,429
514,1263,430
511,1267,432
511,1268,430
511,1269,429
511,1269,429
511,1273,429
511,1268,435
511,1269,432
513,1269,433
511,1268,429
511,1268,429
511,1269,430
511,1268,431
511,1265,431
511,1266,429
511,1267,430
511,1268,430
511,1273,430
511,1265,429
511,1265,429
511,1264,430
511,1266,429
511,1264,429
511,1264,428
511,1266,429
511,1266,428
511,1264,428
511,1263,429
511,1264,430
511,1254,428
511,1265,429
511,1261,428
511,1263,430
511,1261,429
511,1266,428
511,1263,430
511,1261,428
511,1262,428
511,1264,431
511,1252,428
511,1262,429
511,1262,428
511,1262,428
511,1261,429
511,1260,429
511,1261,430
511,1262,428
511,1262,429
511,1248,428
511,1261,420
511,1261,429
511,1260,428
511,1260,428
511,1260,429
511,1260,430
511,1258,427
511,1259,426
511,1259,428
511,1260,426
511,1258,428
511,1260,426
511,1259,429
511,1261,425
511,1262,429
511,1259,426
511,1259,428
511,1259,426
511,1259,427
511,1258,428
488,1257,428
511,1259,428
511,1253,425
511,1260,428
511,1252,427
511,1258,428
511,1256,427
511,1237,428
511,1246,405
511,1257,427
511,1258,428
526,1258,426
511,1258,426
511,1253,426
511,1257,426
511,1257,427
511,1257,428
511,1257,426
511,1256,426
511,1259,428
511,1256,427
511,1254,426
511,1256,426
511,1254,427
511,1254,426
511,1257,425
511,1254,425
511,1261,427
511,1255,427
511,1254,426
511,1256,427
511,1257,429
511,1254,427
511,1254,426
511,1255,436
522,1254,435
511,1253,427
509,1256,426
511,1254,426
511,1253,426
511,1257,423
511,1253,429
511,1254,429
513,1256,425
511,1251,425
511,1253,426
511,1234,427
505,1253,426
511,1256,426
511,1253,424
511,1254,438
511,1254,427
501,1253,428
511,1254,425
511,1253,419
511,1254,426
511,1253,425
511,1252,426
511,1253,428
511,1252,426
511,1254,423
511,1253,425
511,1253,425
511,1253,426
511,1281,427
511,1249,425
511,1252,426
511,1254,425
509,1254,425
511,1253,425
511,1261,427
511,1252,426
511,1253,427
511,1254,424
511,1253,425
511,1258,425
511,1254,426
511,1254,426
511,1253,426
501,1253,426
511,1254,428
511,1254,425
511,1253,427
521,1254,430
511,1252,425
511,1253,421
511,1251,422
511,1254,426
511,1254,425
511,1263,425
511,1245,426
511,1254,425
511,1256,424
511,1254,430
511,1268,425
511,1254,425
511,1254,426
511,1253,425
511,1253,426
511,1254,426
520,1253,410
511,1249,426
513,1253,424
511,1253,425
511,1254,425
511,1252,424
511,1252,425
511,1253,422
511,1252,425
538,1254,420
511,1252,425
511,1252,426
511,1252,425
511,1251,425
511,1253,425
511,1254,422
511,1251,424
511,1252,427
511,1256,428
511,1253,426
511,1252,424
511,1247,420
511,1253,422
511,1254,425
511,1253,425
511,1253,424
511,1252,424
511,1253,411
511,1252,424
511,1253,424
511,1253,424
511,1253,424
511,1253,424
511,1252,424
511,1252,420
511,1253,423
511,1254,423
511,1251,425
511,1250,424
511,1252,424
504,1253,422
511,1252,422
511,1267,423
511,1252,419
511,1252,425
511,1252,424
511,1252,420
511,1253,422
511,1253,414
511,1118,425
512,1253,424
511,1252,423
511,1253,424
511,1251,423
511,1253,422
511,1253,424
511,1253,424
511,1253,425
511,1256,424
511,1254,420
511,1254,424
511,1376,430
563,2137,314
567,2139,313
567,2140,313
566,2145,314
566,2139,313
568,2141,314
567,2140,314
562,2141,313
567,2141,315
566,2143,315
568,2140,314
566,2140,313
569,2142,315
570,2142,316
568,2145,314
566,2144,311
569,2141,315
570,2142,314
568,2143,315
568,2144,315
569,2140,315
569,2145,340
570,2143,309
571,2144,315
570,2141,315
569,2146,316
569,2144,317
572,2144,315
564,2147,316
571,2146,317
570,2145,307
570,2146,315
569,2146,315
572,2147,317
572,2147,315
571,2147,315
572,2147,315
571,2149,316
572,2148,329
577,2146,314
574,2149,316
572,2152,321
574,2149,316
572,2153,314
573,2149,316
574,2149,319
573,2150,318
576,2149,301
574,2149,315
574,2152,327
573,2150,318
577,2150,316
575,2152,315
575,2153,316
573,2154,318
574,2154,319
576,2154,315
577,2158,316
576,2156,317
578,2156,320
582,2156,317
587,2155,317
577,2157,319
577,2168,319
577,2155,318
577,2156,317
578,2156,318
594,2158,318
578,2157,315
577,2157,317
578,2158,319
579,2158,320
581,2157,318
579,2158,317
577,2160,318
578,2160,322
578,2161,318
579,2161,318
581,2161,320
571,2162,320
578,2162,321
579,2168,318
579,2162,319
582,2162,321
580,2163,319
582,2168,319
579,2156,320
579,2165,319
579,2165,320
590,2166,323
581,2166,321
548,2166,322
580,2168,322
601,2168,310
578,2169,320
582,2172,321
580,2169,322
579,2169,320
582,2169,322
582,2170,322
583,2168,322
581,2172,322
585,2172,321
581,2176,321
584,2173,323
584,2173,322
585,2174,317
584,2176,321
586,2178,320
584,2177,325
584,2177,322
584,2177,322
584,2177,325
585,2179,323
582,2179,322
586,2180,323
585,2181,325
576,2194,325
586,2182,321
586,2170,323
585,2182,324
585,2182,322
585,2182,324
586,2185,323
586,2184,324
585,2185,321
616,2186,323
585,2186,320
585,2185,323
586,2166,323
587,2186,324
585,2186,324
586,2187,332
586,2188,328
585,2189,325
585,2188,322
585,2189,325
589,2189,324
588,2179,324
587,2190,326
586,2192,324
585,2192,342
585,2192,325
585,2193,323
586,2193,326
585,2193,324
585,2195,326
587,2193,325
587,2194,324
586,2195,326
587,2217,325
587,2198,325
585,2200,326
588,2195,325
590,2200,321
586,2165,325
586,2201,325
586,2200,326
585,2201,325
585,2203,326
585,2201,325
586,2203,326
584,2202,327
586,2204,325
588,2203,330
586,2204,327
587,2206,325
586,2206,327
586,2205,325
586,2209,325
586,2208,328
587,2208,325
586,2209,325
585,2212,328
589,2210,326
584,2200,317
587,2210,288
592,2212,326
587,2211,326
585,2212,331
586,2214,328
588,2212,326
586,2217,325
586,2214,328
585,2215,325
584,2216,325
587,2221,326
586,2218,325
584,2222,324
587,2218,284
587,2218,326
585,2219,325
586,2221,313
587,2220,326
588,2218,325
587,2192,325
587,2220,324
587,2222,325
586,2222,328
586,2223,324
587,2224,325
586,2225,326
586,2225,334
587,2225,326
588,2225,324
538,2224,326
586,2225,325
587,2229,323
585,2226,325
587,2224,325
586,2226,324
626,2226,325
587,2227,324
587,2227,325
588,2227,323
586,2229,325
586,2230,325
587,2228,323
582,2228,324
586,2227,325
611,2222,324
586,2226,329
587,2229,324
586,2235,321
587,2230,325
590,2232,324
587,2232,324
586,2230,330
585,2232,325
585,2234,328
586,2252,324
586,2233,325
587,2205,324
586,2228,324
586,2233,325
586,2234,336
587,2236,325
584,2234,293
588,2235,324
588,2234,324
585,2236,324
587,2235,325
587,2236,326
587,2235,324
589,2236,324
586,2237,325
586,2236,326
587,2236,325
589,2237,309
588,2236,325
588,2236,325
587,2238,324
587,2241,324
586,2238,325
588,1932,380
310,1477,344
309,1476,343
308,1485,345
309,1477,344
309,1477,343
310,1477,333
315,1477,343
309,1478,344
312,1480,342
310,1480,344
310,1480,344
310,1480,344
311,1480,344
309,1481,343
312,1482,343
313,1478,344
310,1482,345
311,1482,344
302,1483,341
312,1483,342
311,1480,345
312,1485,345
312,1484,342
314,1487,343
313,1487,344
310,1488,344
312,1489,345
313,1488,344
311,1490,345
306,1489,347
313,1490,344
311,1490,342
314,1490,344
312,1491,341
313,1493,345
313,1490,345
310,1494,345
311,1493,342
315,1493,344
314,1496,342
314,1496,344
312,1506,345
313,1497,344
314,1497,344
321,1499,344
314,1498,345
313,1499,344
315,1499,346
316,1501,346
314,1501,345
312,1497,344
313,1501,344
313,1502,344
313,1503,344
315,1502,344
309,1504,382
312,1503,347
316,1506,346
317,1506,346
315,1508,344
314,1506,346
315,1507,345
315,1507,161
316,1512,344
313,1509,346
314,1514,344
390,1507,342
316,1516,344
315,1509,345
331,1509,341
315,1510,344
314,1509,344
315,1512,344
325,1513,345
315,1513,336
326,1514,361
315,1514,345
316,1514,351
316,1501,344
316,1516,344
317,1517,343
316,1516,344
317,1516,346
316,1517,345
317,1520,344
316,1522,345
318,1520,345
315,1518,344
317,1520,345
317,1520,345
317,1522,344
316,1521,343
322,1521,340
315,1525,346
317,1523,344
317,1523,346
316,1524,345
317,1525,345
318,1524,344
317,1524,345
315,1529,343
316,1525,345
316,1528,355
333,1528,346
316,1529,342
317,1530,344
317,1530,344
317,1531,344
319,1531,344
313,1530,344
316,1532,344
316,1535,345
316,1533,346
322,1532,346
315,1533,345
312,1532,347
316,1535,346
316,1535,345
316,1535,340
317,1535,345
315,1535,346
316,1535,353
316,1535,346
316,1535,344
316,1535,345
316,1535,346
316,1535,347
314,1535,344
315,1535,345
318,1535,354
316,1535,346
316,1535,343
315,1535,346
316,1535,345
315,1535,346
314,1536,344
309,1535,344
316,1536,344
288,1538,341
316,1535,345
317,1537,348
317,1538,356
315,1537,352
316,1540,346
315,1538,349
314,1539,344
315,1539,345
315,1534,345
316,1540,346
316,1540,345
318,1541,329
318,1532,345
314,1541,344
316,1540,343
315,1541,345
319,1535,347
316,1542,346
314,1544,345
317,1542,346
316,1544,348
314,1544,346
319,1589,344
315,1545,345
306,1556,346
316,1545,346
315,1542,346
315,1547,347
315,1546,346
314,1548,346
314,1547,353
310,1547,347
314,1548,347
314,1549,346
315,1550,345
314,1549,348
316,1550,347
312,1550,347
314,1550,346
318,1553,346
320,1553,346
315,1551,347
316,1549,349
313,1554,348
314,1554,347
314,1553,347
313,1554,348
292,1555,346
316,1555,345
311,1555,349
315,1556,348
314,1556,348
321,1552,348
313,1557,349
314,1560,349
312,1558,347
315,1560,348
315,1560,348
314,1557,349
315,1560,348
313,1560,349
314,1559,348
314,1556,348
316,1560,365
313,1562,349
312,1560,350
316,1561,349
315,1561,349
313,1562,363
314,1563,350
316,1562,366
315,1563,345
315,1563,349
316,1563,349
315,1561,350
315,1562,350
314,1564,350
318,1563,350
294,1566,348
388,1565,350
315,1565,349
315,1564,350
317,1565,349
315,1562,349
312,1566,351
316,1554,349
316,1565,349
348,1565,350
316,1565,350
314,1565,352
317,1566,351
342,1564,349
317,1568,350
317,1566,352
319,1566,350
318,1567,347
332,1566,349
318,1566,352
318,1569,350
326,1555,351
321,1561,349
317,1566,351
318,1569,352
319,1568,350
318,1567,352
317,1570,374
321,1568,350
319,1569,351
320,1565,352
320,1569,350
320,1568,351
321,1569,352
318,1570,352
322,1569,351
321,1568,352
322,1240,350
489,1757,345
489,1757,341
489,1757,343
489,1756,342
486,1758,342
488,1758,339
490,1759,344
490,1760,340
490,1761,341
489,1759,341
489,1760,343
489,1757,345
491,1760,342
489,1760,338
489,1761,341
485,1760,347
490,1744,342
489,1761,343
491,1760,341
491,1761,341
493,1744,342
492,1762,341
492,1762,342
490,1762,344
505,1762,340
490,1762,342
495,1763,342
490,1770,341
484,1763,340
490,1762,341
490,1764,344
492,1765,342
490,1774,338
492,1766,341
491,1765,342
495,1765,340
491,1765,342
491,1764,341
488,1768,340
492,1766,340
491,1771,340
492,1767,341
491,1769,339
495,1769,342
491,1768,340
493,1769,341
491,1769,341
492,1768,342
492,1771,341
491,1771,342
491,1771,342
492,1772,340
492,1772,339
493,1764,340
493,1774,341
493,1773,341
491,1773,341
491,1773,357
491,1773,340
492,1772,341
491,1775,340
492,1774,340
492,1774,351
492,1774,341
492,1774,341
492,1776,339
493,1776,340
493,1776,340
493,1776,341
490,1779,340
490,1776,340
490,1777,340
494,1777,339
491,1776,341
491,1777,345
490,1806,340
490,1777,337
492,1777,341
492,1778,339
491,1777,341
490,1779,341
491,1778,339
490,1778,337
504,1780,341
491,1771,341
491,1781,342
490,1764,341
490,1776,339
491,1780,341
492,1781,341
489,1780,343
490,1784,342
489,1781,340
490,1781,341
490,1782,341
491,1783,341
475,1782,335
489,1784,341
491,1784,340
490,1782,371
491,1781,340
490,1784,370
488,1792,340
489,1784,342
490,1785,341
488,1786,355
491,1787,340
492,1786,342
489,1786,341
484,1786,341
488,1787,341
489,1787,341
488,1788,341
490,1788,340
487,1787,342
487,1788,341
489,1788,340
489,1789,339
487,1789,338
488,1788,341
488,1640,340
488,1789,341
490,1789,341
489,1790,346
488,1790,341
488,1792,341
487,1792,341
485,1792,341
488,1792,340
476,1792,341
490,1792,340
490,1794,342
486,1787,341
486,1793,340
488,1794,340
485,1795,340
486,1797,338
488,1794,342
488,1794,350
487,1794,341
488,1796,340
486,1798,340
486,1794,340
486,1796,265
488,1797,340
485,1797,338
484,1796,338
486,1796,338
487,1798,340
485,1797,340
485,1797,340
526,1801,340
486,1797,339
480,1798,340
485,1798,340
485,1798,339
481,1799,338
492,1800,304
484,1798,339
483,1800,340
483,1800,339
485,1799,339
485,1800,341
485,1801,339
484,1796,339
484,1802,339
479,1809,333
485,1801,339
483,1801,340
484,1784,340
485,1802,339
484,1799,339
483,1802,337
483,1777,340
484,1803,338
483,1803,328
485,1802,339
481,1803,338
485,1800,339
484,1803,340
483,1803,339
484,1804,338
479,1804,339
485,1805,338
483,1804,337
483,1806,337
483,1804,339
474,1805,346
483,1806,338
490,1805,338
483,1805,338
483,1805,336
483,1808,338
486,1918,338
495,1805,338
483,1806,342
480,1809,338
483,1804,338
484,1805,163
484,1806,337
483,1808,338
481,1809,339
481,1808,338
484,1808,338
484,1809,337
482,1808,338
483,1808,337
482,1808,338
483,1809,336
483,1810,337
481,1811,337
481,1809,341
482,1810,321
482,1811,348
481,1809,337
483,1809,337
482,1811,326
481,1810,337
482,1811,337
482,1810,337
482,1801,337
482,1812,336
482,1809,342
491,1811,337
481,1810,337
480,1811,337
477,1810,335
480,1779,337
481,1813,337
485,1810,336
586,1810,338
482,1811,331
480,1810,337
480,1811,337
480,1812,337
481,1811,335
479,1810,337
479,1811,336
481,1812,337
479,1813,335
478,1809,336
481,1812,336
480,1809,337
478,1811,337
488,1830,338
481,1812,337
478,1810,337
479,1811,337
481,1810,337
478,1811,338
478,1813,323
480,1811,335
480,1811,337
478,1812,337
479,2132,321
443,1721,309
432,1721,326
441,1722,325
440,1722,326
441,1720,326
438,1720,325
441,1719,329
438,1716,326
497,1718,325
440,1720,325
442,1721,324
441,1718,311
438,1714,324
442,1717,326
440,1720,326
441,1732,326
440,1718,325
453,1717,324
436,1718,329
437,1717,326
441,1736,326
440,1717,326
436,1717,325
440,1716,325
441,1715,325
440,1715,325
439,1716,324
443,1716,328
441,1718,326
442,1715,326
440,1715,325
440,1716,320
441,1715,325
440,1716,325
440,1714,325
440,1714,325
441,1714,325
441,1716,325
442,1714,326
440,1713,325
442,1714,326
436,1712,324
441,1713,326
438,1713,326
441,1713,325
441,1713,325
445,1713,324
441,1713,325
442,1712,325
441,1712,326
441,1712,326
445,1710,326
441,1710,322
441,1712,325
442,1712,341
442,1709,318
441,1712,325
443,1711,326
440,1711,326
443,1709,324
443,1710,325
443,1723,325
444,1706,326
441,1710,283
443,1709,326
444,1708,329
443,1711,325
444,1707,326
441,1708,326
444,1707,318
444,1707,326
442,1707,324
443,1708,326
441,1707,326
459,1706,325
443,1706,324
444,1704,326
442,1706,324
443,1705,318
443,1705,326
442,1705,325
436,1704,326
443,1703,323
443,1702,328
443,1704,326
444,1703,325
444,1701,326
443,1704,301
445,1701,326
443,1702,325
444,1701,325
443,1700,325
441,1700,325
443,1701,325
452,1700,316
445,1722,325
441,1699,304
443,1698,326
442,1698,326
443,1700,326
443,1637,324
442,1698,325
444,1697,342
441,1697,325
433,1698,326
444,1696,308
443,1698,325
443,1696,328
441,1696,325
442,1695,326
442,1691,325
443,1695,326
441,1694,327
443,1694,324
443,1694,326
441,1694,325
442,1694,325
443,1693,320
442,1693,325
443,1693,325
442,1693,328
427,1692,329
442,1692,329
442,1690,326
442,1691,325
441,1693,326
442,1691,325
442,1691,253
443,1690,325
443,1691,324
443,1688,326
446,1689,325
441,1690,327
442,1699,325
442,1688,323
460,1689,326
441,1688,325
441,1686,325
442,1688,324
430,1688,324
442,1688,339
440,1687,326
442,1686,323
441,1686,324
441,1688,341
441,1685,324
440,1686,336
441,1685,325
442,1685,325
446,1686,322
438,1684,323
440,1682,324
441,1682,325
441,1689,325
441,1682,324
440,1682,324
441,1683,324
440,1681,324
436,1682,324
440,1681,324
438,1680,325
440,1681,328
437,1680,324
441,1680,324
440,1680,324
437,1680,324
442,1683,326
438,1680,324
439,1681,325
438,1680,318
440,1678,323
440,1677,325
438,1678,323
438,1681,324
463,1678,323
441,1683,323
438,1678,323
438,1676,324
432,1676,326
441,1685,324
437,1676,323
441,1676,325
440,1674,324
462,1677,324
438,1677,323
438,1676,325
440,1676,322
427,1676,323
475,1676,323
440,1677,323
439,1678,324
440,1675,323
440,1676,324
438,1675,323
438,1674,316
443,1677,320
440,1676,324
438,1675,325
440,1674,324
437,1674,324
438,1675,323
438,1675,323
438,1676,324
440,1674,323
438,1674,322
439,1674,322
435,1673,322
438,1674,324
439,1678,323
437,1675,318
435,1675,323
440,1672,324
440,1674,323
438,1675,324
438,1674,323
441,1673,323
437,1674,324
436,1676,324
440,1728,324
438,1675,326
438,1673,324
438,1657,325
438,1673,324
439,1673,324
437,1674,105
440,1672,325
438,1673,324
444,1672,323
440,1665,329
429,1673,325
436,1673,324
437,1673,324
437,1672,325
438,1670,325
438,1672,324
438,1670,322
437,1669,323
438,1670,325
438,1670,323
436,1669,324
437,1672,325
438,1670,324
438,1669,322
378,1670,326
442,1670,324
438,1670,324
438,1670,326
435,1673,342
437,1669,325
440,1669,324
434,1670,325
436,1669,325
436,1669,325
436,1672,325
437,1450,358
