sensor_0,sensor_1,sensor_2
1032,2595,610
1033,2594,616
1034,2584,641
1030,2592,613
1029,2595,616
1034,2592,617
1033,2568,614
1030,2598,617
1030,2590,617
1032,2592,614
1032,2593,617
1033,2592,616
1032,2590,617
1032,2591,617
1032,2589,616
1033,2590,616
1033,2590,617
1025,2589,617
1032,2589,616
1033,2588,617
1026,2587,618
1034,2588,609
1030,2592,617
1036,2588,617
1030,2587,617
1032,2586,616
1030,2586,617
1035,2548,617
1032,2585,618
1036,2579,617
1032,2585,618
1032,2585,617
1032,2582,617
1026,2571,619
1033,2584,618
1032,2583,618
1032,2578,619
1032,2581,617
1033,2570,618
1030,2580,620
1033,2580,617
1030,2580,618
1033,2581,617
1033,2580,618
1032,2581,617
1032,2578,611
1026,2577,620
1032,2580,620
1030,2580,618
1033,2581,618
1032,2578,617
1029,2578,617
1033,2577,618
1038,2577,616
1033,2577,617
1032,2576,618
1031,2576,616
1033,2576,619
1032,2576,618
1030,2574,620
1032,2569,598
1030,2573,619
964,2577,619
1032,2574,619
1033,2574,532
1032,2585,618
1030,2574,618
1032,2570,619
1033,2571,616
1032,2571,619
1030,2571,616
1030,2572,618
1032,2570,619
1033,2569,618
1030,2568,618
1030,2570,619
1030,2570,618
1032,2568,618
1032,2569,618
1031,2567,619
1031,2566,618
1030,2565,620
1032,2569,632
1027,2564,618
1030,2564,618
1032,2564,612
1029,2564,616
1030,2564,621
1028,2563,617
1033,2563,610
1032,2565,618
1028,2560,618
1032,2560,598
1030,2565,618
1030,2562,595
1030,2560,620
1030,2561,617
1032,2560,618
1029,2566,617
1025,2561,616
1036,2560,616
1032,2559,613
1026,2576,618
1029,2559,617
1032,2559,616
1030,2559,616
1029,2559,606
1033,2559,618
1032,2559,609
1030,2559,619
1034,2559,617
1029,2559,618
1030,2559,617
1050,2559,616
1032,2559,618
1026,2559,617
1030,2559,617
1028,2559,617
1030,2559,616
1030,2559,617
1027,2559,616
1028,2559,616
1029,2559,617
1027,2559,622
993,2559,616
1029,2559,617
1030,2559,617
1010,2559,616
1027,2559,616
1030,2559,616
1027,2559,617
1028,2559,613
1028,2559,614
1028,2559,616
1027,2559,612
1027,2559,614
1027,2559,616
1030,2559,616
1026,2546,615
1027,2559,615
1027,2559,616
1027,2559,613
1028,2559,616
1024,2559,616
1004,2559,614
1027,2559,614
1024,2522,614
1025,2559,614
1024,2559,613
1025,2559,613
1025,2558,601
1028,2559,613
1024,2558,627
1026,2559,614
1025,2559,614
1024,2559,614
1025,2558,613
1024,2559,614
1022,2559,613
1024,2559,613
1025,2559,616
1021,2559,613
1022,2559,611
1011,2557,614
1023,2559,608
1022,2559,613
1022,2558,614
1021,2557,613
1023,2557,614
1021,2572,612
1024,2554,612
1022,2558,612
1024,2557,612
1022,2557,613
1092,2557,612
1021,2561,613
1020,2558,612
1022,2558,612
1019,2557,613
1020,2558,612
1020,2558,612
1013,2558,611
1019,2558,612
1020,2553,613
1019,2557,622
1019,2558,609
1020,2558,610
1018,2558,611
1018,2558,610
1021,2559,611
1020,2558,610
1020,2558,612
1019,2558,611
1018,2558,611
1017,2559,609
1017,2559,609
1018,2556,597
1017,2558,610
1018,2557,609
1018,2559,610
1014,2570,611
1016,2552,611
1020,2558,610
1017,2559,613
1017,2559,612
1011,2559,609
1016,2559,610
1017,2559,675
1014,2559,610
1014,2559,609
1017,2559,610
1014,2559,609
1017,2558,610
1014,2559,611
1014,2559,609
1016,2559,609
1014,2559,610
1017,2559,609
962,2559,608
1013,2559,610
1014,2559,610
1011,2573,609
1014,2559,609
1014,2559,604
1014,2559,604
1013,2559,608
1005,2559,610
1022,2559,608
1010,2559,607
1012,2559,608
1012,2559,606
1013,2558,610
1013,2559,609
1010,2559,596
1013,2559,606
1012,2559,608
1137,2559,604
1139,2559,609
1139,2559,608
1140,2559,608
1139,2558,606
1140,2559,606
1142,2559,605
1140,2559,606
1142,2559,607
1142,2559,606
1142,2559,608
1142,2559,606
1144,2559,608
1144,2559,606
1145,2559,606
1146,2558,606
1147,2559,604
1148,2559,606
1148,2526,710
1147,1897,719
1149,1896,720
1154,1843,731
1150,1897,720
1150,1895,715
1150,1896,720
1152,1894,719
1152,1902,718
1152,1896,707
1153,1893,718
1155,1893,719
1155,1899,717
1156,1907,718
1157,1892,717
1157,1890,712
1156,1891,718
1160,1881,714
1205,1891,718
1158,1892,714
1160,1891,718
1162,1890,719
1158,1891,718
1159,1907,717
1160,1897,721
1163,1891,718
1163,1890,721
1162,1889,717
1165,1891,718
1163,1889,718
1163,1889,716
1167,1889,717
1164,1875,716
1165,1888,717
1166,1891,718
1166,1888,714
1167,1887,717
1166,1889,718
1171,1888,718
1169,1888,718
1172,1837,724
1170,1887,717
1166,1885,718
1170,1886,719
1172,1886,716
1172,1885,708
1169,1886,718
1172,1884,719
1188,1885,718
1172,1869,718
1172,1885,718
1173,1885,718
1172,1885,718
1173,1884,719
1174,1884,717
1174,1883,718
1176,1883,717
1173,1884,718
1174,1882,720
1173,1882,848
1172,1882,718
1176,1876,718
1176,1882,718
1173,1882,726
1177,1880,735
1177,1883,717
1177,1882,722
1160,1876,719
1178,1880,718
1178,1880,718
1177,1880,718
1180,1878,719
1178,1876,718
1179,1878,718
1179,1880,718
1180,1880,718
1174,1878,718
1179,1878,718
1180,1874,719
1178,1829,718
1182,1877,718
1180,1875,718
1180,1875,718
1181,1875,718
1181,1875,717
1218,1875,717
1181,1881,718
1180,1889,717
1182,1875,717
1181,1875,721
1179,1875,718
1182,1875,726
1182,1873,716
1184,1873,715
1182,1873,717
1185,1873,718
1183,1873,716
1184,1874,717
1184,1872,717
1185,1872,716
1184,1872,718
1185,1871,716
1185,1872,715
1189,1872,716
1186,1872,713
1186,1789,715
1187,1869,716
1188,1868,715
1188,1870,715
1189,1869,714
1189,1869,715
1189,1869,715
1188,1869,717
1187,1866,716
1189,1868,720
1189,1866,714
1192,1868,714
1190,1867,721
1193,1866,714
1190,1868,714
1192,1868,715
1192,1868,714
1192,1867,713
1190,1868,714
1193,1867,714
1193,1869,713
1194,1861,714
1193,1888,712
1192,1867,713
1193,1864,713
1193,1866,714
1192,1866,714
1188,1866,713
1256,1865,713
1189,1867,714
1193,1865,712
1194,1865,712
1192,1864,720
1193,1866,712
1194,1865,714
1193,1862,713
1194,1859,699
1209,1864,712
1194,1863,712
1194,1864,712
1194,1860,713
1195,1864,709
1194,1862,710
1194,1862,724
1194,1860,710
1195,1859,708
1194,1859,709
1194,1860,710
1193,1859,709
1195,1859,710
1192,1858,710
1195,1858,709
1195,1858,709
1194,1857,709
1195,1857,709
1193,1857,712
1193,1856,708
1195,1857,709
1194,1856,708
1195,1873,708
1194,1854,709
1195,1857,707
1194,1853,709
1194,1852,708
1194,1854,708
1211,1854,708
1195,1853,721
1194,1854,707
1328,1853,706
1193,1852,708
1195,1852,709
1193,1852,717
1195,1851,708
1194,1852,707
1195,1851,707
1195,1851,705
1196,1850,707
1196,1846,708
1195,1849,692
1196,1849,706
1196,1850,738
1195,1854,708
1195,1848,705
1195,1851,708
1195,1844,689
1196,1848,705
1197,1849,706
1197,1848,706
1195,1848,719
1196,1847,707
1194,1848,704
1196,1849,706
1194,1842,705
1197,1845,705
1196,1845,706
1195,1845,705
1193,1846,705
1195,1844,707
1202,1846,704
1195,1846,698
1196,1848,705
1195,1845,710
1195,1846,705
1194,1845,701
1194,1846,703
1195,1845,691
1193,1844,702
1195,1846,705
1195,1846,704
1198,1848,715
1194,1845,705
1193,1845,704
1182,1845,698
1193,1844,703
1189,1844,705
1192,1844,704
1193,1844,704
1189,1845,704
1193,1844,664
1186,1845,703
1192,1845,702
1188,1845,703
1192,1845,702
1190,1844,702
1190,1845,703
1190,1844,704
1191,1849,702
1190,1846,701
1189,1851,702
1181,1845,700
1192,1845,701
1190,1844,702
1477,1845,701
1474,1843,701
1485,1884,705
1478,1845,702
1477,1844,702
1480,1844,700
1480,1845,701
1478,1846,701
1480,1844,701
1481,1845,701
1482,1845,700
1449,1865,700
1483,1834,700
1480,1846,699
1483,1846,697
1484,1848,693
1483,1847,700
1483,1856,701
1484,1697,697
1484,3842,731
1490,3841,714
1486,3841,733
1486,3844,734
1486,3842,734
1487,3832,733
1487,3842,732
1485,3840,729
1486,3841,733
1487,3832,732
1486,3845,732
1487,3838,734
1489,3837,733
1485,3837,734
1489,3837,732
1488,3836,733
1488,3835,737
1488,3834,732
1486,3834,734
1487,3834,733
1486,3833,735
1489,3832,733
1488,3833,734
1488,3852,733
1488,3832,729
1486,3829,733
1488,3826,733
1486,3829,734
1487,3829,733
1487,3826,735
1487,3828,735
1490,3830,733
1486,3824,735
1486,3825,734
1485,3771,733
1485,3823,748
1463,3823,734
1485,3829,734
1485,3818,736
1485,3820,750
1483,3821,733
1483,3821,732
1485,3820,736
1484,3821,723
1481,3819,734
1484,3819,706
1481,3818,731
1482,3816,737
1482,3817,735
1484,3817,736
1482,3817,735
1481,3815,736
1481,3816,735
1480,3813,739
1480,3814,736
1478,3817,738
1478,3812,736
1478,3812,736
1478,3812,736
1480,3817,735
1477,3811,737
1478,3810,738
1477,3809,736
1475,3809,736
1478,3809,737
1477,3809,733
1478,3810,736
1477,3808,736
1478,3806,737
1476,3806,737
1476,3806,736
1535,3803,738
1477,3804,737
1477,3802,737
1477,3800,737
1483,3802,737
1477,3801,737
1476,3799,736
1477,3800,737
1477,3800,737
1478,3798,737
1476,3797,739
1477,3797,739
1478,3797,706
1457,3797,738
1477,3796,742
1478,3795,740
1477,3794,731
1474,3793,740
1478,3794,738
1479,3793,739
1480,3792,725
1478,3791,739
1481,3790,740
1480,3790,739
1478,3785,745
1480,3790,740
1478,3786,739
1467,3789,739
1484,3802,739
1481,3788,741
1483,3787,740
1482,3787,742
1481,3786,740
1483,3784,741
1482,3785,741
1482,3785,741
1484,3785,741
1482,3792,745
1483,3784,742
1483,3782,741
1483,3780,743
1483,3781,740
1485,3781,742
1484,3779,738
1487,3593,741
1461,3779,743
1486,3779,742
1485,3780,742
1485,3778,744
1487,3777,744
1488,3776,744
1491,3777,745
1487,3774,744
1486,3776,746
1482,3775,746
1489,3773,746
1488,3773,745
1493,3773,746
1489,3772,752
1484,3772,746
1492,3772,745
1492,3771,747
1491,3772,747
1492,3771,747
1497,3770,748
1492,3769,746
1494,3769,747
1493,3768,748
1493,3766,749
1494,3765,749
1494,3750,750
1494,3764,748
1496,3763,750
1493,3762,750
1500,3762,749
1492,3761,752
1499,3752,750
1499,3761,753
1501,3760,752
1500,3760,752
1499,3759,752
1500,3757,827
1500,3757,752
1502,3758,755
1503,3756,754
1505,3750,754
1504,3753,753
1505,3754,754
1506,3752,716
1507,3749,754
1507,3751,754
1508,3749,754
1509,3748,756
1510,3748,755
1512,3745,757
1510,3747,756
1513,3752,757
1512,3746,753
1513,3746,758
1518,3744,758
1514,3744,759
1517,3744,757
1519,3742,724
1520,3740,760
1517,3741,760
1520,3740,762
1519,3739,766
1521,3739,759
1522,3738,762
1521,3737,760
1524,3738,762
1532,3737,763
1524,3736,761
1525,3748,763
1529,3716,764
1530,3734,764
1528,3733,764
1531,3732,765
1533,3724,763
1529,3732,765
1535,3730,766
1534,3731,764
1533,3732,767
1535,3729,767
1535,3728,766
1535,3728,769
1535,3728,769
1532,3727,767
1535,3726,769
1535,3726,768
1535,3725,768
1535,3723,769
1535,3724,770
1536,3727,769
1536,3722,770
1538,3725,769
1537,3722,770
1537,3721,772
1540,3722,771
1536,3722,770
1542,3720,770
1540,3721,772
1542,3721,774
1546,3721,771
1546,3719,769
1546,3716,773
1546,3716,775
1547,3716,774
1547,3718,769
1552,3715,773
1553,3713,777
1557,3696,774
1554,3839,774
1554,3714,770
1555,3704,773
1557,3712,775
1556,3713,766
1467,3713,776
1560,3711,770
1561,3709,774
1558,3708,776
1561,3712,778
1563,3710,774
1563,3707,782
1566,3705,773
918,3708,777
918,3708,779
890,3708,777
916,3708,777
914,3708,776
911,3707,776
918,3706,776
917,3706,789
918,3706,779
917,3705,777
916,3706,776
926,3705,774
913,3702,776
915,3696,775
904,3702,774
915,3704,777
914,3708,776
915,3705,776
915,3843,620
918,3843,520
914,3843,518
915,3842,344
914,3843,531
915,3844,521
915,3843,521
914,3842,518
917,3843,527
912,3842,520
913,3842,520
909,3842,520
906,3842,514
912,3843,520
912,3842,522
912,3842,520
912,3842,523
912,3842,520
913,3843,521
913,3843,521
913,3841,520
912,3843,520
897,3841,521
913,3843,520
911,3813,522
912,3846,520
911,3875,520
910,3842,518
910,3846,520
912,3842,521
914,3843,521
909,3843,522
912,3843,522
911,3843,517
910,3843,520
909,3849,522
912,3843,521
909,3843,523
910,3842,521
909,3842,522
910,3843,521
909,3842,522
908,3843,520
908,3841,521
915,3842,521
908,3840,521
974,3845,521
915,3843,520
899,3844,520
908,3842,521
899,3842,521
907,3842,522
907,3842,522
902,3802,521
907,3841,518
907,3842,524
907,3843,523
906,3843,520
907,3842,516
896,3843,521
906,3843,521
901,3843,519
905,3844,521
904,3840,522
902,3841,521
904,3842,504
905,3846,521
905,3843,520
902,3825,514
904,3851,521
900,3842,521
904,3842,517
902,3845,520
904,3844,519
905,3842,511
902,3841,520
898,3843,520
904,3842,518
904,3843,519
902,3844,520
904,3843,518
902,3843,511
904,3843,520
902,3842,521
901,3842,521
899,3842,519
899,3842,520
900,3842,524
900,3843,517
904,3842,520
901,3856,517
900,3841,517
899,3842,522
899,3841,517
898,3843,518
899,3844,518
891,3843,518
900,3843,517
908,3843,511
896,3841,518
900,3842,518
899,3844,517
901,3843,521
900,3854,517
899,3842,516
899,3842,517
899,3842,520
897,3843,520
897,3842,514
894,3842,516
898,3841,516
899,3842,517
899,3843,516
898,3845,515
898,3843,514
896,3844,515
897,3843,515
896,3842,516
901,3843,516
898,3844,516
893,3843,515
894,3753,516
896,3842,514
896,3843,516
896,3842,514
892,3845,515
894,3843,515
892,3853,515
894,3843,521
894,3844,515
898,3845,516
896,3841,515
896,3843,514
893,3842,516
893,3841,510
894,3842,517
896,3843,514
893,3842,515
896,3847,514
894,3843,515
892,3841,511
894,3842,517
892,3842,512
893,3842,515
892,3841,513
893,3842,514
893,3842,519
890,3848,515
892,3843,513
891,3843,511
891,3841,511
892,3842,515
891,3843,512
891,3843,514
892,3844,531
891,3843,512
889,3843,511
890,3841,516
891,3842,514
890,3843,520
891,3843,512
891,3843,513
889,3842,513
890,3842,513
892,3844,514
889,3843,514
890,3843,512
891,3843,512
898,3841,512
889,3842,517
888,3843,514
889,3842,514
878,3843,512
888,3843,514
888,3842,513
889,3848,533
889,3843,513
888,3843,512
888,3842,513
885,3850,512
888,3841,512
885,3842,513
889,3842,513
885,3842,512
890,3845,512
891,3843,513
887,3842,512
883,3842,513
885,3842,511
886,3843,512
884,3843,511
891,3843,511
885,3843,523
885,3841,513
885,3840,512
887,3843,512
884,3843,511
885,3843,512
1021,3824,512
886,3843,512
884,3841,512
883,3842,511
883,3843,511
884,3842,511
882,3843,511
883,3843,512
869,3843,511
881,3842,511
884,3842,511
882,3842,511
882,3843,512
885,3843,511
882,3843,511
882,3824,515
886,3842,514
881,3842,511
886,3842,511
879,3842,511
881,3843,511
876,3843,511
867,3843,511
880,3840,511
880,3842,511
881,3843,511
881,3843,511
878,3843,510
877,3842,511
880,3855,511
881,3842,511
880,3841,513
878,3841,511
878,3842,511
880,3844,511
881,3843,511
880,3842,511
878,3842,511
877,3843,511
842,3843,511
844,3843,511
844,3841,511
841,3842,511
841,3843,444
841,3842,511
842,3843,511
845,3843,511
840,3842,511
843,3844,511
822,3843,511
839,3842,511
834,3842,511
842,3849,511
841,3843,511
840,3843,511
838,3841,511
841,3843,511
840,2739,564
841,2244,489
838,2243,488
840,2244,490
839,2236,489
842,2246,511
840,2246,489
838,2172,488
841,2248,489
840,2248,489
842,2249,488
839,2249,489
838,2249,489
987,2248,484
838,2250,489
837,2250,490
838,2250,488
838,2249,486
839,2251,489
840,2253,486
838,2254,488
837,2251,488
838,2251,489
839,2252,486
837,2252,486
840,2252,488
836,2260,491
839,2252,470
836,2253,488
837,2254,488
841,2254,489
838,2254,488
838,2252,482
838,2255,494
834,2256,488
834,2254,488
837,2254,489
838,2256,486
834,2259,487
836,2257,488
836,2256,490
837,2258,489
840,2258,488
836,2258,486
830,2259,488
836,2260,488
835,2260,488
836,2260,489
830,2260,488
836,2261,486
833,2261,485
835,2259,488
835,2262,486
835,2265,486
835,2262,490
809,2262,488
836,2265,485
834,2264,486
836,2249,491
834,2265,489
834,2265,485
835,2265,486
835,2258,486
834,2265,488
834,2264,488
833,2267,473
832,2266,487
835,2266,486
836,2266,489
838,2272,488
835,2268,458
835,2269,488
836,2268,489
835,2261,489
833,2268,485
835,2315,486
836,2266,488
835,2268,488
834,2268,488
833,2268,489
833,2269,480
833,2269,485
835,2269,485
833,2271,468
834,2250,488
832,2270,488
833,2270,485
833,2270,484
833,2278,488
832,2272,485
833,2272,486
833,2272,488
832,2271,486
850,2272,488
832,2271,486
833,2271,485
832,2278,486
835,2274,488
831,2275,488
813,2274,488
830,2276,486
832,2274,486
832,2275,485
830,2276,485
830,2274,484
830,2276,489
829,2276,348
803,2276,487
834,2276,485
829,2277,486
830,2276,485
829,2278,486
832,2277,485
830,2272,486
831,2277,489
829,2278,488
828,2278,486
829,2277,488
835,2278,488
833,2280,486
828,2278,486
829,2278,486
828,2280,486
829,2280,482
829,2278,486
829,2290,488
827,2284,486
820,2281,486
827,2281,490
826,2281,488
821,2280,486
822,2281,485
828,2280,485
826,2283,486
826,2281,473
828,2280,488
827,2281,486
829,2281,486
827,2280,486
850,2281,484
826,2281,491
827,2280,486
827,2282,486
827,2281,486
825,2278,484
825,2281,488
824,2281,485
825,2281,489
828,2282,484
824,2281,482
825,2284,485
825,2282,485
824,2264,486
823,2281,484
825,2281,480
824,2281,485
824,2281,484
822,2280,485
822,2280,486
822,2280,488
822,2282,485
822,2275,488
822,2281,484
821,2280,485
821,2281,486
824,2280,485
822,2281,455
821,2281,484
822,2280,483
819,2280,483
809,2281,485
820,2281,484
822,2280,484
821,2281,482
821,2282,483
822,2280,484
821,2280,486
819,2280,484
820,2278,484
813,2282,484
820,2281,481
821,2277,482
818,2280,483
820,2280,484
820,2280,483
820,2277,483
820,2280,483
824,2281,483
820,2280,489
820,2280,482
814,2280,484
821,2280,485
820,2280,484
820,2280,482
819,2282,483
821,2280,482
835,2281,484
822,2273,484
832,2280,481
820,2281,485
819,2281,483
820,2281,481
818,2280,467
819,2278,483
822,2280,483
820,2284,485
820,2278,457
820,2280,484
820,2277,483
820,2275,482
824,2278,481
820,2280,482
820,2277,483
821,2280,482
819,2277,482
821,2278,483
819,2277,483
818,2276,483
819,2277,481
820,2276,482
820,2276,480
818,2276,484
819,2276,482
820,2276,482
824,2275,482
818,2275,474
821,2276,482
821,2256,482
820,2274,482
822,2275,481
819,2274,481
820,2275,482
822,2276,481
850,2274,481
821,2274,481
821,2274,481
819,2275,481
650,2275,481
649,2274,481
648,2274,480
651,2274,485
652,2274,482
651,2274,482
650,2274,480
650,2274,480
649,2275,480
650,2273,481
651,2273,482
649,2273,480
650,2274,479
541,2270,481
650,2272,483
650,2272,484
651,2280,481
650,2273,482
659,1621,481
652,1694,499
652,1700,498
652,1696,498
649,1697,497
649,1697,494
651,1700,507
651,1697,498
653,1694,498
646,1696,496
650,1695,496
651,1697,497
652,1697,498
650,1693,499
648,1695,498
649,1694,499
649,1696,497
650,1694,497
650,1696,496
651,1695,497
650,1696,497
640,1695,496
650,1696,498
650,1696,497
650,1696,499
652,1694,496
649,1696,493
649,1695,494
648,1697,496
648,1694,498
649,1694,496
650,1696,496
649,1690,497
649,1695,497
649,1696,497
651,1697,496
649,1697,497
650,1695,496
649,1696,496
649,1694,496
649,1696,497
648,1694,496
649,1696,496
647,1695,492
646,1692,495
646,1696,497
645,1696,498
648,1695,496
678,1695,494
648,1696,492
645,1697,494
646,1699,496
645,1696,497
646,1694,496
645,1694,494
646,1697,494
644,1696,494
648,1696,494
645,1695,496
645,1699,499
645,1696,494
645,1693,493
645,1695,495
646,1693,488
645,1693,494
644,1694,497
644,1691,493
651,1691,493
643,1693,499
641,1693,494
643,1693,492
645,1693,492
643,1694,489
645,1694,493
644,1693,493
644,1692,493
619,1693,492
643,1692,493
644,1700,492
642,1694,493
642,1681,493
642,1691,508
642,1691,492
644,1691,492
643,1691,492
642,1690,493
661,1691,492
643,1691,511
644,1691,492
645,1691,491
644,1691,492
643,1690,490
641,1689,492
641,1689,494
641,1689,492
641,1689,490
643,1688,491
640,1689,491
640,1689,492
641,1690,490
640,1691,491
642,1688,491
641,1688,492
641,1688,492
641,1688,491
641,1687,491
636,1688,491
642,1685,492
641,1688,497
646,1688,489
638,1686,490
635,1688,491
641,1686,490
642,1686,492
666,1685,491
637,1686,490
640,1686,495
658,1686,489
641,1686,496
637,1685,492
637,1685,510
638,1686,489
645,1685,491
640,1686,490
638,1669,491
637,1685,491
638,1685,491
638,1684,490
638,1689,492
640,1683,524
638,1684,491
637,1682,490
642,1683,490
744,1684,487
638,1682,490
637,1683,492
637,1682,492
636,1683,490
640,1684,487
638,1681,487
635,1682,489
636,1681,490
636,1681,490
636,1680,491
636,1679,491
636,1688,489
636,1681,490
636,1678,490
634,1680,491
637,1678,490
640,1678,490
628,1678,488
636,1679,490
636,1678,489
635,1664,489
634,1678,490
636,1675,490
640,1678,489
635,1675,484
634,1677,490
635,1677,490
636,1679,489
636,1677,489
636,1677,490
636,1676,494
634,1676,489
633,1677,481
634,1676,489
632,1677,496
633,1677,489
633,1675,489
673,1685,490
635,1656,488
633,1675,491
635,1675,489
634,1675,490
634,1683,489
635,1674,499
633,1674,492
634,1674,491
634,1674,490
633,1674,489
630,1674,489
634,1673,470
632,1673,489
633,1674,487
632,1676,493
634,1673,489
633,1674,489
633,1673,489
628,1673,489
633,1656,492
630,1674,488
635,1673,467
628,1673,489
632,1672,488
634,1673,490
631,1673,488
632,1673,489
631,1675,494
632,1673,489
630,1673,490
631,1664,488
630,1673,489
632,1672,488
632,1673,488
630,1672,488
632,1672,489
651,1736,497
629,1672,488
630,1670,488
633,1665,490
630,1672,489
629,1670,488
631,1667,478
633,1672,487
630,1668,488
636,1669,489
630,1669,489
630,1669,489
630,1665,493
630,1669,486
630,1670,488
632,1668,515
630,1669,488
631,1668,488
629,1666,487
630,1668,486
630,1669,487
632,1668,486
630,1667,486
632,1667,487
632,1667,486
632,1665,486
629,1666,488
633,1667,486
632,1666,486
672,1666,486
674,1668,488
672,1672,488
676,1666,478
675,1668,466
672,1665,488
670,1667,485
673,1665,486
672,1666,486
669,1666,486
673,1667,486
670,1642,486
670,1662,486
672,1666,532
671,1665,486
672,1665,485
672,1666,485
672,1664,486
670,1395,384
668,2026,365
670,2027,365
670,2029,367
668,2036,365
669,2033,366
669,2032,365
671,2048,367
659,2034,367
660,2036,365
668,2035,366
668,2048,365
670,2040,365
674,2039,372
670,2042,376
669,2040,356
669,2042,365
667,2042,365
669,2045,376
607,2050,366
668,2049,364
670,2049,365
668,2050,362
667,2053,350
668,2056,368
668,2053,366
667,2056,366
667,2057,365
662,2057,365
668,2060,371
667,2060,365
665,2062,368
668,2062,363
668,2064,366
666,2077,365
670,2067,366
667,2069,366
666,2069,370
666,2070,367
667,2072,366
666,2071,366
668,2074,365
667,2090,368
665,2077,368
666,2077,366
665,2078,364
667,2080,370
666,2081,367
667,2082,368
665,2085,367
665,2080,366
666,2087,364
666,2088,367
665,2089,366
666,2090,366
664,2091,366
679,2094,366
665,2097,368
664,2096,365
665,2097,366
666,2099,367
664,2100,366
665,2100,368
662,2102,366
662,2102,366
672,2104,367
663,2106,367
664,2107,366
664,2108,367
663,2109,368
658,2109,368
663,2110,349
661,2113,368
662,2115,367
662,2113,371
658,2116,368
662,2116,367
659,2118,366
662,2119,371
661,2123,366
661,2121,365
661,2122,365
662,2118,370
661,2126,368
662,2126,366
658,2128,366
661,2126,366
660,2136,366
660,2129,365
661,2132,367
660,2134,368
662,2134,365
660,2136,366
690,2136,365
660,2138,365
659,2139,365
661,2141,368
661,2141,367
658,2141,366
658,2142,369
659,2143,365
659,2144,367
659,2146,365
658,2146,364
656,2148,364
659,2153,365
657,2150,365
658,2152,365
658,2153,388
659,2142,364
658,2154,365
659,2156,365
654,2153,366
665,2157,365
658,2159,366
657,2159,365
719,2161,365
657,2162,365
658,2163,362
657,2162,365
658,2165,352
658,2165,365
657,2168,365
659,2168,365
658,2169,360
664,2170,366
657,2171,364
656,2173,365
655,2172,364
656,2174,364
657,2176,364
657,2177,363
657,2177,365
655,2179,366
657,2180,364
657,2180,364
657,2182,364
649,2183,364
654,2185,364
656,2184,362
655,2187,380
662,2211,365
653,2187,363
656,2190,365
653,2192,388
655,2190,361
653,2193,365
654,2192,364
656,2193,365
656,2193,353
654,2196,364
654,2196,362
653,2198,364
653,2193,362
653,2197,362
655,2196,363
654,2198,388
652,2188,364
652,2200,363
652,2200,350
653,2201,363
649,2200,363
653,2203,362
653,2203,363
652,2205,363
652,2205,364
652,2205,363
652,2206,358
652,2206,364
652,2208,360
651,2209,363
652,2210,364
652,2216,360
652,2210,363
651,2209,362
651,2212,364
651,2211,360
669,2213,362
654,2214,362
649,2214,361
651,2216,363
662,2211,362
651,2216,364
652,2218,362
652,2217,364
651,2218,362
651,2219,363
650,2220,362
644,2220,362
652,2219,365
652,2220,361
651,2223,363
649,2222,356
650,2225,361
650,2222,362
650,2225,360
649,2226,361
650,2227,361
649,2227,362
650,2227,361
649,2228,362
649,2234,360
654,2237,361
650,2230,363
650,2232,363
649,2232,361
648,2232,361
645,2233,361
650,2233,360
651,2187,361
649,2229,361
655,2234,361
649,2236,364
650,2236,360
649,2237,361
654,2237,360
645,2238,367
649,2238,361
648,2240,361
648,2238,360
648,2241,360
646,2241,361
649,2242,369
648,2242,362
646,2242,361
649,2241,364
649,2245,361
648,2244,360
646,2243,361
650,2243,360
645,2244,361
646,2126,378
649,2245,360
646,2247,364
645,2245,360
646,2246,360
648,2247,361
563,2249,365
564,2247,360
562,2248,358
563,2247,362
564,2249,360
563,2248,360
564,2249,360
563,2238,360
562,2250,361
563,2249,360
563,2261,363
563,2251,360
563,2249,358
563,2251,358
564,2252,361
541,2251,360
563,2252,360
563,2254,361
562,1409,719
563,1366,602
563,1365,602
562,1366,559
563,1366,601
563,1368,602
562,1366,601
562,1370,602
561,1369,602
563,1369,602
563,1368,602
563,1381,602
561,1368,590
563,1368,602
565,1368,602
564,1368,750
561,1369,601
562,1368,601
562,1368,605
561,1369,602
562,1369,601
562,1370,602
562,1369,606
562,1370,602
563,1371,603
563,1371,602
563,1368,601
561,1370,603
561,1378,602
561,1374,603
562,1373,603
562,1369,602
562,1372,604
594,1370,603
562,1372,602
560,1371,602
562,1371,601
561,1371,603
564,1373,602
561,1372,602
568,1372,603
557,1373,603
568,1372,603
562,1372,602
569,1372,603
561,1372,601
566,1373,603
560,1372,608
561,1372,605
561,1372,605
561,1373,603
561,1376,603
560,1374,602
559,1376,604
561,1373,605
560,1376,603
558,1377,603
556,1376,604
553,1374,604
560,1375,604
560,1375,604
559,1374,604
561,1376,605
561,1377,608
556,1376,605
559,1376,605
559,1382,605
565,1378,606
560,1381,609
564,1377,605
556,1378,605
558,1377,612
558,1374,606
558,1377,606
558,1375,603
558,1369,607
557,1378,605
556,1378,605
558,1381,605
559,1378,608
558,1377,607
571,1372,604
557,1377,607
557,1379,607
558,1380,606
558,1376,608
537,1378,606
557,1378,602
557,1378,605
556,1378,606
563,1377,606
556,1377,608
555,1378,606
557,1378,605
557,1378,606
557,1379,613
555,1380,620
557,1376,609
556,1382,606
556,1380,606
557,1379,608
560,1380,608
557,1378,607
555,1376,605
555,1379,607
556,1379,608
556,1379,607
561,1380,607
555,1380,606
555,1380,606
543,1380,606
556,1380,608
560,1393,606
555,1379,608
556,1379,613
556,1380,609
554,1380,617
555,1378,608
555,1380,608
554,1381,608
553,1382,607
554,1380,608
554,1379,608
555,1379,608
554,1379,608
555,1382,612
554,1380,609
553,1381,609
554,1380,608
556,1381,610
554,1381,608
554,1382,609
553,1382,608
554,1380,607
546,1384,606
553,1382,610
554,1381,608
553,1383,609
557,1381,609
553,1381,608
553,1382,609
553,1384,609
552,1382,606
554,1382,608
552,1382,609
553,1386,608
552,1346,610
553,1384,610
551,1383,610
554,1387,611
553,1383,608
552,1383,609
553,1382,608
550,1382,628
550,1386,608
544,1382,608
549,1382,602
549,1381,608
447,1382,609
552,1381,609
549,1383,609
552,1382,610
550,1382,616
550,1382,609
550,1382,606
548,1380,608
549,1383,608
549,1384,608
549,1383,605
546,1384,607
549,1381,610
550,1382,608
550,1382,608
549,1381,609
549,1381,606
550,1381,606
550,1382,606
549,1382,607
547,1365,606
547,1382,608
548,1382,607
548,1381,606
549,1382,606
548,1382,606
548,1381,607
555,1381,606
550,1381,608
553,1389,605
548,1382,606
549,1383,608
546,1381,606
548,1381,607
548,1382,607
549,1382,606
547,1381,605
547,1381,606
550,1382,610
543,1381,609
547,1388,609
549,1381,607
547,1380,604
547,1380,576
535,1381,606
546,1382,608
547,1381,606
547,1382,606
547,1381,602
547,1381,606
547,1382,606
546,1380,605
546,1380,602
548,1376,606
546,1381,604
546,1381,605
546,1381,605
548,1381,605
542,1381,604
546,1381,605
547,1381,607
547,1381,603
541,1380,605
545,1380,605
545,1381,605
546,1380,606
546,1379,605
546,1380,605
545,1380,605
545,1380,606
544,1380,605
545,1380,604
546,1379,604
545,1379,604
546,1379,605
546,1378,606
548,1378,604
545,1379,605
545,1378,604
956,1376,605
