sensor_0,sensor_1,sensor_2
122,102,125
123,100,123
122,101,122
122,101,125
121,100,124
123,102,122
121,102,124
121,101,122
122,99,123
121,101,123
123,101,125
125,100,124
123,91,123
123,101,123
123,101,124
121,101,124
138,104,122
122,100,123
122,101,123
118,101,156
122,100,123
120,101,123
124,102,122
122,100,123
109,101,122
123,98,123
113,103,122
122,102,123
118,102,123
125,99,123
123,101,120
122,100,123
123,100,124
124,101,113
124,100,123
122,101,123
123,108,124
122,101,123
123,102,122
128,101,125
122,101,124
123,101,126
123,101,124
124,101,122
124,104,122
122,101,124
123,100,120
121,100,124
122,99,124
123,100,124
123,101,124
122,100,121
123,102,122
122,100,123
122,101,125
121,102,122
124,102,117
123,104,123
122,101,124
123,101,124
125,103,123
122,101,123
120,102,123
122,100,122
122,98,125
125,98,123
122,101,124
122,100,123
123,100,124
122,101,124
123,101,171
122,101,124
125,104,122
123,100,122
123,104,124
124,98,124
118,101,123
117,101,117
122,100,123
118,101,123
124,99,125
123,100,123
123,101,126
121,101,124
123,101,123
139,100,125
121,100,123
123,102,123
123,102,123
122,102,123
123,101,125
122,89,124
123,100,124
122,99,123
122,104,124
120,99,123
123,100,124
123,100,124
123,98,123
122,102,124
110,98,124
121,100,123
123,99,122
123,101,126
121,100,124
122,102,125
106,100,124
123,101,124
117,101,123
126,101,116
120,101,124
122,100,126
122,99,124
123,98,124
124,100,125
120,98,124
122,100,123
120,104,123
123,101,123
122,100,125
122,100,124
122,102,124
120,100,124
124,101,124
121,99,124
120,101,125
124,101,123
121,101,123
122,101,124
122,100,125
122,99,123
120,102,123
124,100,134
127,100,126
122,101,125
122,100,123
122,100,124
120,102,124
122,98,123
121,101,124
121,106,121
120,97,123
122,101,123
123,100,123
117,100,123
123,102,123
116,100,158
121,101,124
130,100,123
121,101,124
123,100,122
121,104,124
117,104,121
122,100,123
122,99,123
124,100,121
123,98,124
123,101,123
122,102,123
122,101,124
126,101,122
123,100,122
123,102,125
123,101,124
124,101,124
122,98,123
122,100,123
123,100,124
123,101,124
123,101,124
123,100,123
122,101,124
123,101,123
121,102,123
122,100,124
121,102,124
121,100,124
122,100,124
123,100,124
122,100,124
123,100,123
121,100,124
123,100,122
120,101,123
123,100,123
121,101,124
121,97,121
122,101,123
123,115,124
122,101,123
123,101,124
124,102,125
120,101,125
123,101,123
120,101,124
125,101,124
120,98,122
125,108,123
123,102,122
121,101,124
117,101,123
121,101,122
121,99,123
123,102,109
122,101,124
122,100,123
121,101,123
122,100,118
123,100,122
122,104,123
123,101,123
123,101,123
121,101,121
124,101,123
123,100,122
122,101,125
123,100,122
124,101,122
126,101,123
123,99,128
122,101,123
124,100,124
121,101,124
122,101,124
128,101,124
123,100,124
123,99,124
123,75,123
124,98,146
124,101,126
124,99,124
121,105,125
118,105,124
124,101,125
122,100,125
123,101,123
122,97,123
120,100,124
120,107,125
123,101,126
121,101,124
124,101,127
129,101,124
122,100,125
121,100,124
122,104,123
122,101,125
123,101,121
122,101,125
122,100,128
121,101,124
123,102,124
84,101,124
121,100,125
123,104,123
122,100,120
122,101,124
122,101,123
121,99,124
122,99,124
125,101,124
122,100,124
123,100,124
121,102,124
121,100,123
122,101,125
125,99,124
121,104,131
129,101,124
121,101,124
123,100,123
122,100,124
123,101,125
124,104,124
122,102,120
122,100,124
121,101,141
131,101,124
122,100,125
123,104,124
128,107,120
123,99,123
123,104,124
122,101,124
118,100,123
121,100,125
123,100,124
120,102,121
124,102,124
121,100,123
122,101,123
122,99,125
126,103,118
123,101,124
146,102,123
123,101,126
121,101,123
122,101,123
128,100,124
121,102,125
122,100,123
123,102,125
122,102,125
123,100,124
122,101,124
121,101,124
125,101,122
131,100,129
115,101,124
120,98,124
122,102,124
121,101,125
118,102,129
123,101,124
120,101,124
126,100,135
121,103,118
121,102,124
122,100,123
121,101,125
122,104,123
122,101,125
122,102,114
121,105,125
122,114,125
124,98,123
122,100,123
121,102,124
121,99,124
121,101,124
122,103,124
122,100,121
123,102,123
122,101,123
121,102,124
118,100,122
121,101,123
122,101,124
124,101,124
120,98,124
122,101,124
121,102,124
121,104,123
120,102,126
106,102,123
121,99,124
122,101,125
123,106,124
121,100,124
124,100,125
121,101,125
120,96,124
120,104,122
123,101,125
122,101,123
122,101,124
123,101,124
122,101,124
122,100,124
120,101,125
122,101,124
123,101,128
122,100,125
121,101,113
129,101,123
120,100,124
125,99,124
122,156,123
123,102,124
123,99,121
125,102,124
121,102,130
121,100,123
122,101,125
120,101,124
123,101,125
122,106,125
122,100,125
121,100,123
120,100,123
123,101,124
122,98,124
122,100,129
122,101,124
121,101,124
122,100,124
123,100,124
122,103,125
122,100,124
124,101,124
118,98,124
122,100,108
132,102,125
122,100,125
121,101,124
122,101,130
124,100,123
121,102,124
123,100,125
120,101,125
122,101,123
120,101,124
122,101,129
123,102,118
122,108,119
121,101,124
122,101,126
121,101,124
121,101,125
122,102,125
122,97,124
123,101,125
122,100,124
119,100,124
122,101,125
122,104,126
122,102,124
118,99,123
124,102,124
123,102,124
124,104,124
122,100,124
124,100,125
121,102,125
124,101,125
123,101,125
123,105,124
122,101,120
122,102,91
147,101,126
122,100,124
122,102,124
121,99,125
122,96,123
122,102,124
122,100,125
121,101,123
120,101,125
121,101,122
122,100,124
122,101,124
124,100,123
122,100,124
122,113,125
121,100,127
122,94,126
121,99,123
123,101,124
120,103,128
123,101,124
120,101,133
123,101,123
122,108,123
122,101,125
122,100,139
122,99,124
122,99,124
121,99,125
122,106,122
122,101,124
122,102,124
124,99,124
117,104,124
121,99,125
123,100,124
115,100,124
121,101,125
123,100,125
126,93,125
118,98,123
121,102,124
122,101,126
122,100,123
121,101,121
122,100,125
121,97,124
122,104,122
122,100,124
120,100,125
122,99,123
122,118,124
120,100,124
122,102,125
122,101,129
120,102,126
134,100,129
122,100,126
120,101,131
121,101,126
123,99,123
121,100,125
122,101,128
122,100,129
123,101,126
122,105,126
125,101,126
122,101,124
122,98,129
122,100,126
121,100,126
121,100,127
122,101,124
121,100,126
123,101,126
124,99,126
157,101,127
123,106,124
122,101,126
118,94,126
121,100,129
122,100,125
121,98,124
121,98,125
121,100,126
123,101,125
121,101,126
121,99,125
124,98,126
122,100,125
122,100,128
121,100,128
121,100,124
125,101,127
122,100,126
119,101,126
123,99,126
120,102,125
88,100,124
122,104,129
124,102,128
122,101,125
121,100,128
118,100,128
121,99,128
122,100,125
123,93,125
121,100,126
124,101,126
123,100,125
123,110,126
122,98,123
122,99,125
121,99,125
123,100,126
122,101,129
122,100,126
120,101,126
121,101,126
118,100,113
121,99,125
124,101,126
122,99,128
123,100,125
121,102,126
121,102,126
123,102,126
120,99,129
122,104,125
121,105,123
121,102,124
122,100,128
122,102,126
122,100,124
121,100,129
118,101,128
122,101,122
124,100,125
122,99,126
123,100,134
119,100,126
122,100,126
123,99,125
122,99,121
123,101,126
121,101,128
123,98,125
121,91,132
118,99,127
124,100,125
124,101,124
122,100,126
122,100,125
122,100,126
126,100,124
122,99,126
124,100,129
122,100,125
126,101,126
122,101,125
123,102,126
123,100,126
123,101,125
124,101,126
144,100,125
122,100,123
125,100,125
123,100,124
122,102,125
123,102,126
124,100,126
121,104,128
122,100,128
126,99,126
123,100,125
122,104,126
122,100,126
121,101,126
122,98,126
121,99,125
122,101,130
122,100,126
122,100,125
121,100,126
121,101,125
120,107,126
122,98,124
123,98,121
121,102,128
122,100,127
122,100,126
122,100,126
122,100,126
122,100,126
121,101,126
121,101,125
123,101,124
122,100,126
122,102,126
122,99,128
122,101,128
113,101,128
121,102,126
123,100,126
122,102,122
122,102,146
128,101,128
123,100,125
120,101,125
120,101,124
123,98,128
122,99,128
123,101,122
121,106,125
122,101,125
122,100,146
121,101,128
122,101,129
122,99,126
122,101,126
123,100,125
121,100,126
122,104,128
122,100,129
121,100,139
123,100,128
123,94,124
121,101,125
123,100,129
122,100,126
123,99,125
122,101,124
121,96,125
120,101,124
122,101,125
122,101,128
122,98,129
120,100,125
121,99,123
122,100,126
122,98,126
122,101,125
122,97,126
122,100,121
121,102,128
122,102,125
123,101,126
121,100,124
125,101,126
122,100,128
123,101,128
120,99,115
129,100,126
122,101,126
123,101,123
123,100,126
121,101,121
122,100,124
121,98,125
122,99,126
122,100,125
122,102,126
122,100,128
122,100,124
122,99,126
122,101,125
122,100,124
120,100,128
122,102,128
125,102,128
122,98,126
121,100,126
121,101,126
123,98,124
122,100,128
121,101,128
122,102,126
122,100,126
124,102,126
122,99,126
123,100,128
122,104,125
121,101,124
122,98,126
121,100,126
122,102,128
122,100,126
121,100,125
123,100,124
122,99,126
123,100,126
123,100,120
125,101,126
122,100,126
121,100,125
101,101,124
125,100,124
121,101,125
123,101,125
122,100,113
126,101,172
121,101,125
121,101,126
121,109,129
122,100,124
118,98,126
122,100,126
120,102,125
122,66,128
121,100,126
122,100,126
121,100,126
120,101,126
125,100,124
122,101,126
122,100,126
123,100,125
122,99,126
123,101,126
121,101,126
122,100,129
121,101,128
121,109,122
120,101,125
120,99,125
123,98,126
122,100,129
122,100,126
121,100,125
122,100,126
122,100,125
121,102,124
121,101,128
114,101,126
122,85,126
122,105,126
123,102,123
122,104,126
123,100,125
122,104,125
122,98,125
121,101,123
120,100,126
124,101,132
122,101,126
120,101,128
123,102,128
120,101,128
115,101,126
122,102,128
121,101,128
121,102,125
122,102,128
133,104,131
122,101,125
123,101,126
122,101,126
122,102,126
122,101,124
123,98,141
122,104,125
123,102,125
113,105,126
123,102,126
122,101,125
120,100,126
122,101,125
118,101,125
124,101,126
125,101,126
118,100,128
124,101,125
122,102,125
118,102,126
121,102,121
124,100,126
123,102,123
122,102,125
124,100,126
123,102,125
125,101,126
123,102,128
124,102,128
122,104,128
121,101,125
122,101,126
122,104,125
123,105,125
123,104,155
121,102,129
117,101,126
122,102,123
124,101,126
124,100,125
120,100,128
123,101,126
123,102,125
122,101,123
122,105,128
121,102,126
122,101,124
120,101,126
122,102,125
122,101,125
118,106,126
122,100,126
122,101,125
125,102,129
121,99,129
122,104,126
124,104,126
123,88,125
123,102,126
125,102,126
123,101,126
120,101,124
122,102,128
122,102,126
122,101,136
124,108,126
122,107,126
121,102,129
121,102,131
121,101,126
122,104,126
121,102,125
121,101,126
123,100,128
122,102,125
122,100,126
123,102,126
124,102,126
122,100,126
123,105,126
124,101,131
125,101,125
121,101,125
123,102,125
122,102,124
121,100,125
121,102,129
122,101,128
122,104,128
123,101,125
123,100,127
121,100,125
120,102,126
107,100,126
122,101,125
123,99,125
122,101,126
121,100,126
122,102,126
121,101,125
122,100,125
122,101,126
122,101,125
123,102,124
120,101,128
124,101,128
122,100,125
118,102,122
121,101,126
122,102,125
121,105,126
128,104,125
121,102,126
123,101,125
123,106,128
118,101,125
123,102,129
122,104,125
122,101,125
123,101,99
122,105,126
122,106,125
124,103,125
122,105,126
121,101,126
124,102,128
123,100,126
121,102,129
123,102,134
123,102,126
121,104,126
122,101,128
118,102,124
117,105,126
123,102,126
122,101,127
120,100,126
122,104,128
122,99,125
120,101,125
122,101,126
123,104,126
125,94,126
122,98,125
121,100,126
123,101,126
123,101,125
122,101,128
122,100,131
123,100,125
121,106,128
121,101,125
123,102,125
123,101,125
122,101,129
122,101,126
123,99,115
122,100,125
122,102,124
122,100,129
122,102,126
122,101,126
122,101,126
122,102,126
123,104,126
121,101,119
121,104,129
124,101,125
125,101,126
123,102,126
122,104,126
124,101,125
124,94,129
123,101,125
123,102,126
121,102,122
121,102,125
124,102,125
117,100,125
122,101,125
118,108,129
123,104,128
123,101,126
123,102,131
122,100,128
123,100,126
125,101,125
120,103,126
122,100,125
120,105,128
121,104,125
122,101,125
122,101,125
125,101,126
122,102,152
124,101,132
123,101,125
122,101,128
122,101,126
120,101,126
122,102,125
122,101,126
122,103,131
121,101,128
122,101,131
118,101,125
122,101,126
123,100,126
122,101,126
122,100,126
122,102,128
123,102,126
122,99,130
120,101,129
120,101,126
122,100,128
120,100,128
122,101,126
121,106,128
122,101,127
122,90,128
122,102,126
122,102,128
121,102,139
122,108,125
123,101,125
123,102,126
125,102,129
122,95,128
121,101,126
123,101,130
123,101,129
122,100,125
122,106,128
122,100,128
124,101,129
123,100,128
121,100,128
129,99,127
128,101,128
121,98,126
122,101,126
121,99,129
121,100,130
120,100,128
122,100,128
123,100,126
124,100,126
122,100,129
122,100,126
122,98,125
122,98,128
123,104,129
121,100,128
121,101,128
121,100,132
123,102,128
121,101,125
125,100,126
122,88,128
122,100,136
120,100,129
124,99,126
121,99,129
122,100,127
122,100,126
122,99,125
121,100,126
120,102,126
121,101,124
123,99,126
122,100,125
122,101,128
122,99,112
124,100,126
115,100,125
121,100,128
130,100,126
120,100,126
123,99,128
122,100,126
122,100,130
122,99,126
123,106,126
121,100,128
122,100,126
121,99,128
121,100,126
121,100,125
122,80,128
118,98,129
120,99,128
120,99,126
121,99,128
121,100,126
123,100,126
120,100,126
124,98,128
123,96,125
121,100,126
121,100,128
122,100,125
122,99,128
124,101,128
120,101,130
124,101,128
121,99,128
122,117,126
121,101,133
122,98,128
121,100,125
116,102,128
122,100,128
124,100,125
103,100,128
121,99,128
123,100,125
121,99,124
122,98,128
138,101,125
123,100,126
122,100,128
122,100,128
116,101,126
122,99,128
124,100,128
125,76,129
123,100,128
121,99,126
122,100,128
123,103,126
120,99,129
123,105,126
122,99,126
117,100,128
121,100,126
121,100,128
123,99,126
119,99,126
122,99,128
121,99,126
123,99,128
120,99,131
121,99,129
121,104,126
117,99,128
121,101,125
117,97,129
121,100,128
119,102,128
122,99,126
129,98,128
121,100,128
122,98,126
120,99,121
124,93,128
123,100,133
120,100,126
122,100,126
128,100,127
122,97,128
119,100,130
124,99,123
120,101,128
122,97,126
121,102,128
125,96,126
123,99,124
117,98,128
122,101,128
125,98,126
122,101,126
121,100,128
121,99,126
123,100,124
122,99,128
123,99,128
122,100,129
123,98,126
122,100,128
122,100,128
120,100,126
122,100,130
122,106,116
121,97,130
122,100,129
121,100,126
121,100,130
122,99,128
122,100,126
124,98,126
123,100,126
122,99,125
122,100,126
122,99,128
124,102,126
121,110,128
121,97,128
121,101,128
125,97,128
122,99,128
121,99,129
122,99,127
121,100,128
122,106,126
123,100,128
121,101,128
124,99,136
114,99,124
122,100,125
122,100,129
123,98,128
119,99,124
122,100,129
122,96,125
123,97,130
120,100,126
115,99,126
122,99,128
122,99,126
122,102,126
121,100,127
120,100,128
120,100,128
123,98,125
122,100,128
120,101,129
125,101,126
121,100,128
123,99,132
117,99,128
122,101,128
124,99,126
118,100,126
122,100,126
122,101,128
121,100,129
123,101,127
122,100,128
122,99,125
121,101,113
123,105,128
121,99,128
122,100,126
121,100,130
122,88,128
122,99,128
123,98,127
120,98,129
122,99,126
122,100,128
123,100,129
122,98,129
118,98,128
123,100,126
123,100,108
122,99,128
122,100,128
122,102,125
120,100,124
122,99,126
122,99,128
121,101,126
122,101,126
122,100,125
123,99,123
123,101,121
123,101,126
122,100,128
123,99,125
125,101,124
122,100,125
125,100,127
122,100,125
128,100,122
122,100,124
119,98,131
123,100,124
116,98,124
122,100,126
122,100,125
120,98,124
121,99,124
123,98,124
122,99,121
121,104,124
124,99,124
121,101,124
122,100,125
120,101,124
123,100,124
123,99,125
122,101,124
120,100,124
129,102,125
123,100,124
121,100,125
124,101,125
121,75,124
122,102,147
122,101,124
122,101,126
122,100,124
123,104,124
123,101,124
121,101,124
121,101,123
126,101,124
121,100,122
122,101,124
123,100,128
122,100,124
122,99,123
121,102,124
122,102,124
123,101,124
122,100,123
120,100,125
122,100,121
123,101,125
120,101,124
124,101,124
122,100,124
116,100,131
122,101,124
124,101,128
123,101,126
122,101,121
122,101,125
126,100,131
122,102,128
123,100,132
122,97,125
122,102,124
122,104,124
122,112,125
125,104,125
123,102,125
122,100,112
121,101,125
117,100,126
121,102,126
122,99,124
121,100,124
122,101,124
123,101,126
122,101,124
123,101,125
121,101,125
122,101,124
122,100,125
122,101,124
123,100,125
123,101,125
122,100,126
122,104,128
122,101,125
120,100,128
121,100,125
120,100,124
123,101,124
121,101,125
90,100,124
121,102,124
121,100,125
122,101,126
122,101,124
125,104,124
123,100,126
122,101,124
122,101,124
122,101,125
122,101,125
121,101,124
122,129,123
122,100,134
120,100,124
122,100,129
122,94,126
123,101,124
120,101,125
121,104,122
123,101,125
122,104,125
120,101,125
122,103,125
105,100,124
123,101,126
121,101,125
123,101,126
128,101,125
121,99,124
121,101,122
123,101,125
123,100,123
122,101,126
123,101,121
121,104,125
122,101,124
125,99,123
122,101,126
122,100,124
122,101,125
122,106,126
123,100,128
121,100,124
122,101,124
121,100,124
122,101,124
122,100,124
122,101,123
122,94,125
122,100,125
122,99,126
122,101,124
123,101,124
123,101,125
122,101,126
122,100,125
126,104,125
122,99,125
123,101,124
123,101,124
122,101,125
122,101,125
122,101,129
122,96,125
122,101,126
115,102,125
122,101,125
121,99,125
122,101,124
120,100,126
123,100,126
128,100,124
119,101,125
122,100,125
122,102,125
122,100,124
122,101,126
120,100,124
123,101,126
121,99,120
123,93,125
122,100,124
123,101,124
121,100,122
96,101,124
122,101,124
118,100,124
123,103,125
125,100,125
124,101,124
124,101,126
122,101,126
121,101,124
123,101,124
124,102,126
116,100,125
121,101,125
123,101,124
121,98,124
128,102,125
123,100,124
122,100,125
123,101,125
122,101,124
122,101,123
120,105,125
123,104,126
121,102,125
123,101,124
117,101,125
122,101,125
121,101,124
122,100,129
122,104,123
122,102,124
122,101,124
124,101,124
122,100,124
123,104,125
123,101,129
120,102,124
127,102,122
121,101,128
122,101,122
123,101,130
122,100,124
121,101,129
122,101,128
122,100,125
122,101,124
123,102,123
122,102,124
120,101,122
128,101,126
118,101,125
122,101,124
124,100,124
123,105,125
124,101,124
123,100,125
121,100,125
122,100,124
121,85,132
120,99,125
122,101,123
121,101,122
121,100,125
122,99,125
122,101,123
121,99,125
137,100,124
123,102,125
120,100,125
118,99,125
122,101,111
123,101,126
122,100,124
123,100,119
121,104,123
116,100,123
121,101,123
122,101,123
124,101,123
122,100,123
122,100,123
123,102,122
122,102,123
123,101,122
120,101,127
123,101,122
123,99,123
123,101,122
122,104,123
123,101,124
123,91,124
122,101,122
123,102,123
123,101,124
122,97,124
120,101,123
122,101,122
122,102,124
122,101,123
122,105,123
122,102,124
122,102,120
121,103,123
128,103,123
121,104,123
122,104,121
123,104,123
125,81,121
122,104,122
122,104,123
122,104,124
122,102,122
121,104,124
122,105,124
121,99,123
126,104,123
122,107,121
121,105,122
123,103,123
123,104,124
122,104,123
121,102,121
123,104,122
130,101,123
122,89,124
122,105,125
121,102,123
122,103,123
122,107,121
122,102,122
122,103,124
121,102,122
129,101,126
123,104,125
121,102,124
121,104,123
139,104,123
121,102,123
125,105,123
122,102,125
121,104,123
123,105,122
122,102,123
124,104,122
123,146,124
123,105,123
123,104,123
122,105,122
122,104,122
122,102,124
118,101,123
128,104,123
122,101,121
122,103,128
125,103,122
124,102,122
122,105,124
121,105,120
121,102,125
121,102,123
133,103,123
122,102,122
122,104,122
124,104,122
123,102,124
122,104,125
123,102,124
121,101,111
122,105,124
122,105,123
121,104,124
121,102,122
121,96,122
123,102,123
124,106,123
122,102,124
121,106,136
123,102,126
122,104,123
121,104,123
121,104,123
122,100,123
124,104,123
121,106,123
123,103,124
121,106,125
122,104,122
112,104,122
122,102,123
123,102,123
122,103,124
122,104,122
118,104,122
123,100,123
122,104,123
121,101,124
120,100,121
124,103,117
122,103,123
122,104,123
123,102,123
122,103,125
122,102,123
122,103,131
122,102,125
121,105,124
121,103,124
123,104,124
123,102,123
121,104,123
122,102,121
122,102,123
124,102,125
122,100,131
123,104,122
123,104,124
123,101,123
124,106,123
121,118,122
123,103,124
123,98,122
122,102,124
121,103,125
121,104,122
121,102,114
124,102,124
121,104,123
122,103,122
122,104,123
122,101,123
122,105,122
122,104,121
123,102,123
123,108,125
123,104,124
122,108,123
123,102,123
122,101,124
122,104,124
122,105,124
123,102,126
123,101,124
120,102,124
121,103,124
122,104,123
125,103,121
122,104,123
121,104,123
123,103,123
122,104,123
122,102,123
122,104,122
122,104,122
123,104,123
124,104,123
126,102,124
121,101,123
123,103,123
122,101,123
121,102,123
123,102,123
121,103,100
122,100,122
122,104,123
125,104,124
117,102,123
124,102,123
121,103,124
120,105,123
122,102,123
120,103,123
122,104,123
121,99,123
120,103,123
121,102,121
121,104,125
123,99,123
123,108,123
121,104,123
123,102,122
121,104,123
122,104,124
122,102,123
122,103,125
121,103,124
120,108,124
123,106,123
123,104,123
122,101,123
123,102,124
121,102,160
122,101,124
121,104,123
122,101,123
125,104,123
122,104,123
123,102,123
122,103,124
122,102,123
122,104,124
122,102,122
124,106,122
89,102,125
125,103,120
121,102,125
121,104,123
123,108,125
123,104,123
121,103,124
123,104,123
121,101,123
125,104,123
117,103,122
120,104,123
126,116,123
122,102,123
122,104,122
124,105,126
118,103,129
121,102,122
122,105,124
121,102,124
123,104,123
124,107,123
122,106,123
120,102,123
120,103,123
123,100,120
123,104,120
122,107,121
122,103,121
121,102,122
121,105,121
120,101,121
122,102,121
121,99,122
120,102,121
123,104,119
123,102,121
123,103,121
113,104,120
123,104,123
123,104,121
122,104,121
123,104,120
122,103,120
121,100,126
122,101,121
122,102,129
127,101,121
123,101,121
124,102,120
121,114,122
123,102,118
118,103,120
122,105,121
123,101,123
122,101,120
122,101,121
123,101,121
122,99,121
122,102,121
122,104,120
122,104,119
122,102,122
123,101,121
122,104,121
122,102,120
123,101,121
123,100,121
123,102,122
124,100,122
121,100,121
123,101,122
122,101,122
121,101,123
124,101,120
123,104,123
122,101,122
123,104,120
123,101,123
122,101,123
123,103,121
123,101,121
123,104,129
123,99,121
122,100,121
128,101,120
118,101,121
123,101,122
118,100,121
124,102,122
118,102,120
123,101,122
121,102,107
121,102,123
122,101,129
122,104,122
122,101,121
122,102,121
121,105,118
122,101,121
122,100,121
123,101,123
123,101,121
122,101,121
123,103,121
123,100,121
124,74,122
122,99,123
125,101,123
122,102,121
114,100,121
121,101,121
120,101,121
122,101,121
130,101,118
122,102,121
122,101,121
124,101,123
122,102,121
124,100,121
121,101,121
122,101,141
120,101,121
123,104,120
122,101,121
122,101,120
121,101,121
124,107,121
123,101,120
124,101,121
122,101,121
122,101,121
125,101,123
124,101,121
122,101,120
122,102,121
122,102,126
126,102,120
122,101,121
124,101,121
122,102,121
121,100,119
122,101,122
121,101,121
123,101,120
122,101,121
121,106,122
123,102,121
123,105,121
121,100,121
123,100,122
121,98,119
122,101,122
122,101,121
122,101,122
123,101,124
122,101,121
120,101,121
121,102,125
124,103,122
121,102,122
121,100,121
121,98,121
125,109,121
123,102,122
122,97,122
122,101,120
123,101,121
123,102,121
123,100,122
122,100,121
122,100,121
122,105,120
123,102,118
123,101,121
122,101,121
123,101,120
122,101,121
122,96,121
124,100,121
122,101,136
124,100,121
123,105,121
122,101,121
123,101,121
122,102,121
123,101,125
123,100,128
122,101,121
122,101,120
123,102,121
124,101,121
121,100,122
122,104,122
123,100,122
121,101,122
121,101,117
120,102,120
122,101,120
123,102,121
121,105,122
120,101,121
124,105,121
123,100,122
120,102,120
124,99,121
122,102,121
123,102,121
121,101,123
125,101,121
123,101,122
122,101,121
121,101,120
123,101,122
123,102,121
121,103,114
121,107,120
123,100,121
123,101,121
123,107,123
122,101,112
126,102,122
122,100,123
122,101,121
122,101,113
122,99,122
123,101,120
123,100,122
123,101,121
122,103,123
129,100,119
122,101,121
122,100,121
121,101,121
118,101,121
122,106,121
115,100,120
123,100,123
121,101,121
123,101,122
122,101,121
122,101,121
120,101,119
123,101,117
122,101,120
123,101,121
122,101,122
123,105,120
122,101,121
123,102,121
125,100,121
122,100,121
122,100,124
123,93,122
123,100,120
122,101,123
123,101,122
122,102,121
123,101,122
122,99,120
123,104,122
120,102,120
124,106,125
125,100,122
125,101,123
122,100,120
122,101,121
122,101,121
120,101,120
123,101,122
123,101,129
122,101,122
123,101,112
124,101,121
121,101,125
122,101,121
122,98,121
121,101,121
100,101,121
123,101,122
125,102,123
122,100,123
